frequency,refractiveIndex,absorption
0.0006107526277516292,1.4662273909383023,-0.001985608671984067
0.0012215052555032584,1.467830164193522,-0.007831649534700117
0.0018322578832548875,1.4704002022344258,-0.017224006010201343
0.002443010511006517,1.4738039965026,-0.029693513698887966
0.003053763138758146,1.47788473583118,-0.04467882896067495
0.003664515766509775,1.482480785138835,-0.06158758449657435
0.004275268394261404,1.4874395976587287,-0.07984504684064825
0.004886021022013034,1.4926261566431105,-0.09892653021001539
0.005496773649764663,1.497926707063373,-0.11837488869408755
0.006107526277516292,1.503249174399559,-0.13780667798288118
0.006718278905267922,1.5085216181025385,-0.15691083262983088
0.00732903153301955,1.5136897359983594,-0.17544301089767395
0.00793978416077118,1.518714077010482,-0.19321784420494098
0.008550536788522809,1.5235673367249727,-0.2101005301036813
0.009161289416274438,1.528231920163399,-0.22599861957675976
0.009772042044026067,1.5326978411988597,-0.24085445492255808
0.010382794671777697,1.5369609646395925,-0.25463846579316146
0.010993547299529326,1.5410215655248631,-0.2673433818069915
0.011604299927280955,1.544883167121173,-0.2789793353476135
0.012215052555032585,1.548551616018916,-0.2895697835396811
0.012825805182784214,1.5520343546406081,-0.29914815826042984
0.013436557810535843,1.555339855596041,-0.3077551474566771
0.014047310438287471,1.5584771871622798,-0.3154365137807571
0.0146580630660391,1.5614556839673503,-0.3222413637695752
0.015268815693790731,1.5642847013607726,-0.3282207900926381
0.01587956832154236,1.5669734358238425,-0.33342681933900997
0.01649032094929399,1.5695307970829626,-0.3379116075465093
0.017101073577045618,1.5719653203700041,-0.3417268347235783
0.01771182620479725,1.5742851095792534,-0.3449232577412026
0.018322578832548876,1.576497803962687,-0.34755038809393557
0.018933331460300507,1.5786105625458862,-0.3496562671559253
0.019544084088052135,1.5806300616923976,-0.35128731675017094
0.020154836715803762,1.5825625022453345,-0.35248824719768124
0.020765589343555393,1.5844136234750197,-0.3533020086174266
0.02137634197130702,1.586188721697717,-0.35376977421066164
0.021987094599058652,1.587892671933885,-0.3539309466786758
0.02259784722681028,1.5895299513708634,-0.3538231808799007
0.02320859985456191,1.5911046637055901,-0.3534824174079826
0.023819352482313542,1.5926205636851702,-0.3529429230329692
0.02443010511006517,1.5940810813509594,-0.35223733495102594
0.025040857737816797,1.5954893456366201,-0.3513967065819654
0.025651610365568428,1.5968482070813803,-0.3504505532788245
0.026262362993320056,1.5981602595039615,-0.34942689680131167
0.026873115621071687,1.599427860545904,-0.3483523077847663
0.027483868248823314,1.6006531510401163,-0.3472519457278931
0.028094620876574942,1.6018380731949444,-0.3461495962452057
0.028705373504326573,1.6029843876088663,-0.3450677054988655
0.0293161261320782,1.604093689148187,-0.34402741184841623
0.029926878759829835,1.6051674217318068,-0.3430485748482936
0.030537631387581463,1.6062068920745032,-0.34214980178766813
0.03114838401533309,1.607213282444293,-0.34134847200996277
0.03175913664308472,1.6081876624913105,-0.3406607592774674
0.03236988927083635,1.6091310002056392,-0.34010165246188384
0.03298064189858798,1.6100441720604493,-0.3396849748467443
0.03359139452633961,1.61092797239479,-0.339423402326699
0.034202147154091235,1.6117831220878327,-0.33932848078172273
0.03481289978184286,1.612610276573527,-0.33941064289286343
0.0354236524095945,1.613410033241547,-0.3396792246530926
0.036034405037346125,1.614182938267324,-0.3401424818101898
0.03664515766509775,1.6149294929108962,-0.3408076064612316
0.03725591029284938,1.615650159321326,-0.3416807440002292
0.037866662920601014,1.6163453658805775,-0.3427670106012001
0.038477415548352635,1.6170155121181058,-0.34407051139970946
0.03908816817610427,1.6176609732248555,-0.3455943595170957
0.039698920803855904,1.6182821041930808,-0.34734069605204415
0.040309673431607525,1.6188792436062402,-0.3493107111459943
0.04092042605935916,1.6194527171012834,-0.35150466621007326
0.04153117868711079,1.6200028405238451,-0.3539219173837373
0.04214193131486242,1.6205299227952579,-0.3565609402783
0.04275268394261404,1.6210342685088501,-0.3594193560413277
0.04336343657036568,1.6215161802716704,-0.36249395876307033
0.043974189198117304,1.6219759608066064,-0.36578074422971557
0.04458494182586893,1.6224139148288284,-0.3692749400152413
0.04519569445362056,1.6228303507095483,-0.3729710368891729
0.045806447081372194,1.6232255819392483,-0.37686282150520534
0.04641719970912382,1.6235999284017928,-0.3809434103238135
0.04702795233687545,1.6239537174702015,-0.38520528471111176
0.047638704964627084,1.6242872849342487,-0.3896403271454663
0.048249457592378704,1.6246009757695723,-0.39423985845542975
0.04886021022013034,1.6248951447574933,-0.39899467600246535
0.049470962847881966,1.6251701569643517,-0.40389509271633445
0.050081715475633594,1.6254263880888027,-0.40893097688305663
0.05069246810338522,1.6256642246851931,-0.41409179258021583
0.051303220731136856,1.6258840642708328,-0.41936664065000595
0.05191397335888848,1.626086315324726,-0.4247443000954558
0.05252472598664011,1.626271397185079,-0.43021326978313534
0.053135478614391746,1.6264397398526724,-0.43576181033288436
0.05374623124214337,1.6265917837069706,-0.44137798607352896
0.054356983869895,1.626727979141669,-0.4470497069431132
0.05496773649764663,1.6268487861261507,-0.45276477021203776
0.05557848912539826,1.626954673699177,-0.4585109019080402
0.056189241753149884,1.6270461194009282,-0.464275797823481
0.05679999438090152,1.6271236086493668,-0.47004716398731117
0.057410747008653146,1.6271876340666878,-0.47581275648671845
0.05802149963640477,1.627238694761469,-0.48156042052611614
0.0586322522641564,1.6272772955719514,-0.48727812861568487
0.059243004891908035,1.6273039462757037,-0.49295401778433373
0.05985375751965967,1.6273191607707505,-0.49857642571741606
0.06046451014741129,1.6273234562330514,-0.5041339257243201
0.061075262775162925,1.6273173522550628,-0.5096153604452583
0.06168601540291455,1.6273013699698953,-0.5150098742129761
0.06229676803066618,1.627276031165424,-0.5203069439901322
0.0629075206584178,1.6272418573924985,-0.5254964088090445
0.06351827328616944,1.6271993690712356,-0.5305684976465435
0.06412902591392107,1.627149084599152,-0.5355138556725769
0.0647397785416727,1.6270915194647428,-0.5403235688176593
0.06535053116942433,1.6270271853698912,-0.5449891866099932
0.06596128379717596,1.6269565893643194,-0.5495027432397188
0.0665720364249276,1.626880232995097,-0.5538567768139424
0.06718278905267921,1.6267986114740374,-0.55804434677196
0.06779354168043085,1.626712212865619,-0.5620590494366815
0.06840429430818247,1.6266215172978897,-0.5658950316841674
0.06901504693593409,1.626526996198644,-0.5695470027185782
0.06962579956368573,1.626429111558949,-0.5730102439468017
0.07023655219143736,1.6263283152259616,-0.5762806169512416
0.070847304819189,1.6262250482267866,-0.5793545695660669
0.07145805744694061,1.6261197401249468,-0.5822291400668552
0.07206881007469225,1.626012808410912,-0.5849019594888174
0.07267956270244387,1.6259046579279313,-0.5873712520943051
0.0732903153301955,1.6257956803342961,-0.5896358340144133
0.07390106795794714,1.6256862536029835,-0.5916951100949257
0.07451182058569876,1.6255767415595164,-0.593549068980788
0.0751225732134504,1.6254674934587061,-0.595198276477833
0.07573332584120203,1.6253588436008382,-0.5966438672346811
0.07634407846895366,1.6252511109877148,-0.5978875347914022
0.07695483109670527,1.6251445990188496,-0.5989315200454802
0.0775655837244569,1.625039595227995,-0.5997785981892909
0.07817633635220854,1.6249363710600622,-0.6004320641762111
0.07878708897996017,1.6248351816883924,-0.600895716776263
0.07939784160771181,1.6247362658722209,-0.6011738412848218
0.08000859423546343,1.6246398458540863,-0.6012711909509083
0.08061934686321505,1.6245461272968416,-0.6011929671938261
0.08123009949096668,1.6244552992598111,-0.6009447986804765
0.08184085211871832,1.6243675342135824,-0.6005327193362802
0.08245160474646994,1.624282988092807,-0.5999631453665437
0.08306235737422157,1.6242018003863183,-0.5992428513655108
0.08367311000197321,1.6241240942637962,-0.5983789455930737
0.08428386262972484,1.6240499767381238,-0.5973788445004303
0.08489461525747646,1.6239795388625295,-0.5962502465868517
0.08550536788522808,1.6239128559615124,-0.5950011056718157
0.08611612051297972,1.623849987894516,-0.5936396036668409
0.08672687314073135,1.62379097935122,-0.592174122932791
0.08733762576848299,1.6237358601772884,-0.5906132183088004
0.08794837839623461,1.6236846457293364,-0.5889655888990942
0.08855913102398623,1.6236373372578368,-0.5872400497046881
0.08916988365173786,1.6235939223166296,-0.585445503186541
0.0897806362794895,1.6235543751976516,-0.5835909108463067
0.09039138890724112,1.6235186573894587,-0.581685264911247
0.09100214153499275,1.6234867180580725,-0.5797375602077642
0.09161289416274439,1.6234584945486374,-0.5777567663085355
0.09222364679049602,1.6234339129063544,-0.575751800035977
0.09283439941824764,1.6234128884151005,-0.5737314984039377
0.09344515204599926,1.6233953261521334,-0.5717045920778016
0.0940559046737509,1.6233811215572556,-0.5696796794310681
0.09466665730150253,1.6233701610147706,-0.56766520127474
0.09527740992925417,1.6233623224465676,-0.5656694163330308
0.09588816255700579,1.6233574759146436,-0.5637003775369511
0.09649891518475741,1.623355484231366,-0.5617659092037512
0.09710966781250904,1.6233562035757683,-0.5598735851679161
0.09772042044026068,1.6233594841141803,-0.5580307079255338
0.09833117306801231,1.6233651706234824,-0.5562442888505316
0.09894192569576393,1.623373103115286,-0.5545210295381531
0.09955267832351557,1.6233831174593645,-0.5528673043260227
0.10016343095126719,1.6233950460046516,-0.5512891440402576
0.10077418357901882,1.623408718196172,-0.5497922210089358
0.10138493620677044,1.6234239611862757,-0.5483818353814519
0.10199568883452208,1.6234406004385846,-0.5470629027873559
0.10260644146227371,1.6234584603230955,-0.5458399433637628
0.10321719409002535,1.623477364700922,-0.5447170721755151
0.10382794671777695,1.6234971374972063,-0.5436979910475411
0.10443869934552859,1.6235176032607772,-0.5427859818239907
0.10504945197328022,1.6235385877091795,-0.5419839010631171
0.10566020460103186,1.623559918257775,-0.5412941761728922
0.10627095722878349,1.6235814245316527,-0.5407188029861955
0.10688170985653511,1.6236029388591804,-0.5402593447702209
0.10749246248428675,1.623624296746068,-0.5399169326592362
0.10810321511203837,1.6236453373289141,-0.5396922674952179
0.10871396773979,1.6236659038072672,-0.5395856230558458
0.10932472036754162,1.6236858438533155,-0.5395968506443727
0.10993547299529326,1.6237050099984027,-0.5397253850121447
0.11054622562304489,1.6237232599956515,-0.5399702515785894
0.11115697825079653,1.6237404571580567,-0.5403300749107081
0.11176773087854816,1.6237564706715044,-0.5408030884187588
0.11237848350629977,1.6237711758822566,-0.541387145221508
0.1129892361340514,1.62378445455853,-0.5420797301305832
0.11359998876180304,1.623796195125887,-0.5428779726998143
0.11421074138955467,1.6238062928762564,-0.5437786612823589
0.11482149401730629,1.623814650150462,-0.5447782580352374
0.11543224664505793,1.6238211764942636,-0.5458729148084975
0.11604299927280955,1.6238257887879717,-0.5470584898531939
0.11665375190056118,1.6238284113497896,-0.5483305652811205
0.1172645045283128,1.6238289760131324,-0.5496844652062651
0.11787525715606444,1.6238274221782356,-0.5511152744974146
0.11848600978381607,1.6238236968384567,-0.5526178580694265
0.1190967624115677,1.6238177545817436,-0.5541868806398298
0.11970751503931934,1.6238095575678184,-0.5558168268770581
0.12031826766707095,1.6237990754816907,-0.557502021865814
0.12092902029482258,1.6237862854641871,-0.5592366518154266
0.12153977292257422,1.6237711720202352,-0.5610147849369109
0.12215052555032585,1.62375372690571,-0.5628303924152128
0.12276127817807747,1.6237339489936913,-0.5646773694036905
0.1233720308058291,1.623711844121041,-0.5665495559691568
0.12398278343358073,1.6236874249162498,-0.5684407579170057
0.12459353606133236,1.6236607106095384,-0.5703447674271144
0.125204288689084,1.6236317268262443,-0.572255383434048
0.1258150413168356,1.623600505364546,-0.5741664316855724
0.12642579394458725,1.6235670839586123,-0.5760717844171598
0.12703654657233887,1.6235315060282796,-0.5779653795813748
0.12764729920009052,1.6234938204163833,-0.5798412395746321
0.12825805182784214,1.6234540811148754,-0.5816934894055025
0.12886880445559376,1.623412346980881,-0.5835163742525402
0.1294795570833454,1.6233686814438388,-0.5853042763620135
0.13009030971109703,1.6233231522048783,-0.5870517312391896
0.13070106233884865,1.6232758309295836,-0.5887534430903067
0.13131181496660027,1.6232267929352793,-0.5904042994751456
0.13192256759435192,1.6231761168739778,-0.5919993851340859
0.13253332022210354,1.6231238844120888,-0.593533994956294
0.1331440728498552,1.6230701799080032,-0.595003646059919
0.13375482547760678,1.6230150900886209,-0.596404088957894
0.13436557810535843,1.6229587037258744,-0.5977313177871381
0.13497633073311005,1.622901111314276,-0.5989815795816886
0.1355870833608617,1.6228424047504881,-0.6001513825749767
0.13619783598861332,1.6227826770158786,-0.6012375035181703
0.13680858861636494,1.6227220218629919,-0.6022369940070498
0.13741934124411656,1.6226605335068363,-0.603147185811469
0.13803009387186818,1.6225983063218414,-0.6039656952055976
0.13864084649961983,1.6225354345453071,-0.6046904263008771
0.13925159912737145,1.6224720119881177,-0.605319573385559
0.1398623517551231,1.6224081317534678,-0.6058516222791752
0.14047310438287472,1.6223438859642807,-0.6062853507123172
0.14108385701062634,1.62227936549998,-0.6066198277457804
0.141694609638378,1.6222146597432114,-0.606854412245252
0.1423053622661296,1.6221498563370804,-0.6069887504313078
0.14291611489388123,1.6220850409534167,-0.6070227725261517
0.14352686752163288,1.6220202970725368,-0.6069566885223023
0.1441376201493845,1.6219557057749223,-0.6067909830990607
0.14474837277713615,1.621891345545199,-0.6065264097168372
0.14535912540488774,1.6218272920887393,-0.6061639839200983
0.14596987803263936,1.6217636181611736,-0.6057049758823814
0.146580630660391,1.6217003934110592,-0.6051509022284851
0.14719138328814263,1.6216376842358906,-0.6045035171707376
0.14780213591589428,1.6215755536516088,-0.6037648029981061
0.1484128885436459,1.6215140611757124,-0.6029369599578095
0.14902364117139752,1.6214532627240386,-0.6020223955709999
0.14963439379914917,1.621393210521232,-0.601023713425055
0.1502451464269008,1.621333953024888,-0.599943701485897
0.15085589905465244,1.621275534863301,-0.5987853199750948
0.15146665168240406,1.6212179967867308,-0.5975516888567339
0.15207740431015568,1.6211613756320429,-0.5962460749801255
0.15268815693790733,1.6211057043005501,-0.5948718789248553
0.15329890956565892,1.62105101174885,-0.593432621594212
0.15390966219341054,1.620997322992409,-0.5919319306050378
0.1545204148211622,1.6209446591216239,-0.5903735265198473
0.1551311674489138,1.6208930373300434,-0.5887612089687819
0.15574192007666546,1.6208424709544205,-0.5870988427077447
0.15635267270441708,1.6207929695262215,-0.5853903436593183
0.1569634253321687,1.620744538834206,-0.5836396649817902
0.15757417795992035,1.6206971809976467,-0.5818507832121991
0.15818493058767197,1.6206508945497544,-0.5800276845269502
0.15879568321542362,1.6206056745308413,-0.57817435116439
0.15940643584317524,1.6205615125907304,-0.5762947480512786
0.16001718847092686,1.6205183970999155,-0.5743928096750627
0.1606279410986785,1.6204763132689346,-0.5724724272415505
0.1612386937264301,1.6204352432754345,-0.5705374361575807
0.16184944635418172,1.620395166398364,-0.5685916038751602
0.16246019898193337,1.6203560591587363,-0.5666386181336341
0.163070951609685,1.6203178954663846,-0.564682075633605
0.16368170423743664,1.6202806467721322,-0.5627254711748745
0.16429245686518826,1.6202442822247884,-0.560772187289337
0.16490320949293988,1.62020876883237,-0.5588254843968496
0.16551396212069153,1.620174071626966,-0.5568884915111747
0.16612471474844315,1.6201401538326345,-0.5549641975201203
0.1667354673761948,1.6201069770357486,-0.5530554430623149
0.16734622000394642,1.6200745013571847,-0.5511649130208941
0.16795697263169804,1.62004268562578,-0.5492951296518224
0.16856772525944969,1.620011487552458,-0.5474484463625618
0.16917847788720128,1.619980863904466,-0.5456270421544729
0.16978923051495293,1.6199507706791398,-0.5438329167396705
0.17039998314270455,1.619921163276658,-0.5420678863412629
0.17101073577045617,1.6198919966712302,-0.540333580182928
0.17162148839820782,1.6198632255801992,-0.5386314376716561
0.17223224102595944,1.6198348046305422,-0.5369627062755349
0.17284299365371106,1.6198066885222724,-0.535328440095263
0.1734537462814627,1.6197788321882693,-0.5337294991263746
0.17406449890921433,1.6197511909500766,-0.5321665492068314
0.17467525153696598,1.619723720669228,-0.5306400626420412
0.1752860041647176,1.619696377893692,-0.529150319497351
0.17589675679246922,1.6196691199990354,-0.5276974095461145
0.17650750942022086,1.6196419053239448,-0.526281234858779
0.17711826204797246,1.6196146932997546,-0.524901513017145
0.1777290146757241,1.6195874445736655,-0.52355778093512
0.17833976730347573,1.6195601211253627,-0.5222493992665129
0.17895051993122735,1.6195326863767632,-0.5209755573772773
0.179561272558979,1.6195051052946547,-0.5197352788593378
0.18017202518673062,1.6194773444860149,-0.5185274275602241
0.18078277781448224,1.619449372285824,-0.5173507141025268
0.18139353044223389,1.6194211588372176,-0.5162037028644317
0.1820042830699855,1.6193926761638455,-0.5150848193925616
0.18261503569773715,1.6193638982343426,-0.513992358216471
0.18322578832548878,1.6193348010188322,-0.5129244910330426
0.1838365409532404,1.6193053625374199,-0.5118792752288911
0.18444729358099204,1.619275562900657,-0.5108546627068539
0.18505804620874364,1.6192453843419847,-0.509848508983119
0.18566879883649529,1.6192148112421918,-0.5088585825204687
0.1862795514642469,1.6191838301459474,-0.5078825742623448
0.18689030409199853,1.6191524297704911,-0.506918107333084
0.18750105671975018,1.6191206010065986,-0.5059627468684197
0.1881118093475018,1.6190883369119478,-0.5050140099410236
0.18872256197525342,1.6190556326970482,-0.5040693755458103
0.18933331460300507,1.6190224857039095,-0.5031262946095403
0.18994406723075669,1.6189888953776512,-0.5021821999898987
0.19055481985850833,1.6189548632312691,-0.5012345164298248
0.19116557248625995,1.618920392803804,-0.5002806704326691
0.19177632511401158,1.6188854896121603,-0.49931810002536253
0.19238707774176322,1.6188501610968555,-0.49834426437673013
0.19299783036951482,1.618814416561984,-0.4973566532393247
0.19360858299726647,1.6187782671096993,-0.4963527961841898
0.19421933562501809,1.6187417255695316,-0.4953302715984285
0.1948300882527697,1.618704806422865,-0.4942867154176509
0.19544084088052135,1.6186675257229175,-0.4932198295652716
0.19605159350827298,1.6186299010105618,-0.4921273900730198
0.19666234613602462,1.6185919512263527,-0.4910072548578677
0.19727309876377624,1.618553696619115,-0.48985737113194494
0.19788385139152787,1.618515158651461,-0.48867578242402
0.1984946040192795,1.6184763599026062,-0.4874606351918573
0.19910535664703113,1.6184373239688616,-0.4862101850075026
0.19971610927478275,1.6183980753621738,-0.4849228022977071
0.20032686190253438,1.6183586394070864,-0.4835969776250208
0.200937614530286,1.618319042136502,-0.4822313264955061
0.20154836715803764,1.618279310186612,-0.4808245936813616
0.20215911978578927,1.6182394706913665,-0.47937565704867824
0.20276987241354089,1.6181995511768454,-0.47788353088158325
0.20338062504129253,1.6181595794558892,-0.4763473686969342
0.20399137766904415,1.6181195835233468,-0.4747664655442974
0.2046021302967958,1.6180795914522763,-0.47314025978867424
0.20521288292454742,1.6180396312914394,-0.4714683343749841
0.20582363555229904,1.6179997309644145,-0.4697504175745799
0.2064343881800507,1.617959918170645,-0.4679863832166088
0.2070451408078023,1.6179202202887206,-0.4661762504080387
