frequency,refractiveIndex,absorption
0.0006107526277516292,1.815437169434001,0.0004840453920567106
0.0012215052555032584,1.8153709379961454,0.001935160892400358
0.0018322578832548875,1.8152606841968921,0.004350288836169817
0.002443010511006517,1.8151066053023472,0.007724347624931255
0.003053763138758146,1.8149089762309891,0.012050253378086174
0.003664515766509775,1.8146681483114628,0.01731895002005366
0.004275268394261404,1.8143845477024942,0.023519447581602133
0.004886021022013034,1.8140586734871598,0.03063886843497509
0.005496773649764663,1.8136910954564711,0.03866250112682931
0.006107526277516292,1.8132824515993489,0.04757386142149199
0.006718278905267922,1.8128334453182418,0.05735476011965554
0.00732903153301955,1.8123448423913486,0.06798537717550927
0.00793978416077118,1.8118174677042405,0.0794443415981467
0.008550536788522809,1.8112522017747634,0.09170881659162011
0.009161289416274438,1.810649977096458,0.10475458936260085
0.009772042044026067,1.8100117743263564,0.11855616500457553
0.010382794671777697,1.8093386183437101,0.13308686385417665
0.010993547299529326,1.8086315742064223,0.14831892170702166
0.011604299927280955,1.807891743031997,0.16422359227893307
0.012215052555032585,1.8071202578296175,0.18077125130154506
0.012825805182784214,1.8063182793094652,0.19793150165063955
0.013436557810535843,1.8054869916947227,0.2156732789193616
0.014047310438287471,1.8046275985608382,0.2339649568669669
0.0146580630660391,1.8037413187254037,0.25277445219661704
0.015268815693790731,1.802829382210992,0.2720693281424827
0.01587956832154236,1.8018930263015989,0.29181689637568
0.01649032094929399,1.8009334917120503,0.3119843167716756
0.017101073577045618,1.7999520188879983,0.3325386946162536
0.01771182620479725,1.798949844452441,0.35344717486390353
0.018322578832548876,1.79792819781292,0.3746770331001377
0.018933331460300507,1.796888297941818,0.3961957628980403
0.019544084088052135,1.7958313503403065,0.4179711592982608
0.020154836715803762,1.7947585441947291,0.4399713981803846
0.020765589343555393,1.7936710497323678,0.4621651113321489
0.02137634197130702,1.7925700157819338,0.484521457060488
0.021987094599058652,1.791456567542254,0.507010186224391
0.02259784722681028,1.790331804561165,0.5296017036048971
0.02320859985456191,1.7891967989250155,0.5522671245603656
0.023819352482313542,1.788052593657755,0.5749783269464667
0.02443010511006517,1.7869002013271733,0.5977079983093793
0.025040857737816797,1.7857406028547942,0.6204296783881995
0.025651610365568428,1.784574746524445,0.6431177969860854
0.026262362993320056,1.7834035471839502,0.6657477072932615
0.026873115621071687,1.78222788563299,0.6882957147638055
0.027483868248823314,1.781048608189815,0.7107391016665334
0.028094620876574942,1.779866526428437,0.7330561474450449
0.028705373504326573,1.7786824170775912,0.7552261450350076
0.0293161261320782,1.7774970220721602,0.7772294132976472
0.029926878759829835,1.7763110487474,0.7990473057372739
0.030537631387581463,1.7751251701660273,0.8206622156765955
0.03114838401533309,1.7739400255680688,0.842057578069815
0.03175913664308472,1.772756220933216,0.8632178681349463
0.03236988927083635,1.771574329645449,0.8841285969897561
0.03298064189858798,1.7703948932497606,0.9047763044755237
0.03359139452633961,1.7692184222908576,0.9251485493508084
0.034202147154091235,1.768045397224013,0.9452338970367928
0.03481289978184286,1.7668762693883624,0.9650219050909282
0.0354236524095945,1.7657114620332992,0.9845031065824551
0.036034405037346125,1.764551371388919,1.003668991538342
0.03664515766509775,1.7633963677718498,1.0225119866228123
0.03725591029284938,1.762246796718174,1.0410254332078361
0.037866662920601014,1.761102980135544,1.0592035639854454
0.038477415548352635,1.759965217467086,1.0770414782667985
0.03908816817610427,1.7588337868601278,1.0945351161063168
0.039698920803855904,1.7577089463331745,1.1116812313820545
0.040309673431607525,1.7565909349351077,1.128477363957345
0.04092042605935916,1.755479973891021,1.1449218110419446
0.04153117868711079,1.7543762677295511,1.161013597864988
0.04214193131486242,1.7532800053870672,1.176752447764892
0.04275268394261404,1.75219136128448,1.1921387517963082
0.04336343657036568,1.7511104963729314,1.2071735379478048
0.043974189198117304,1.7500375591450423,1.221858440059032
0.04458494182586893,1.7489726866087827,1.2361956665203564
0.04519569445362056,1.7479160052214684,1.2501879688332598
0.045806447081372194,1.7468676317817895,1.2638386101059913
0.04641719970912382,1.7458276742780792,1.277151333552932
0.04702795233687545,1.7447962326914779,1.2901303310640715
0.047638704964627084,1.743773399752896,1.3027802119065242
0.048249457592378704,1.7427592616530394,1.3151059716156288
0.04886021022013034,1.7417538987050705,1.3271129611322452
0.049470962847881966,1.7407573859597025,1.3388068562377244
0.050081715475633594,1.7397697937728362,1.3501936273370305
0.05069246810338522,1.7387911883260543,1.3612795096368513
0.051303220731136856,1.7378216321005224,1.3720709737642125
0.05191397335888848,1.7368611843050605,1.3825746968685144
0.05252472598664011,1.7359099012592754,1.3927975342477898
0.053135478614391746,1.7349678367329293,1.4027464915390442
0.05374623124214337,1.7340350422427073,1.4124286975093523
0.054356983869895,1.7331115673078377,1.421851377484346
0.05496773649764663,1.732197459666064,1.431021827448422
0.05557848912539826,1.731292765451527,1.4399473888486147
0.056189241753149884,1.7303975293363112,1.4486354241345814
0.05679999438090152,1.7295117946374212,1.4570932930640654
0.057410747008653146,1.728635603390997,1.4653283298020061
0.05802149963640477,1.7277689963956968,1.473347820840818
0.0586322522641564,1.7269120132271616,1.481158983766733
0.059243004891908035,1.7260646922254912,1.4887689468964755
0.05985375751965967,1.7252270704577946,1.4961847298072073
0.06046451014741129,1.7243991836576824,1.5034132247788865
0.061075262775162925,1.72358106614379,1.5104611791703635
0.06168601540291455,1.7227727507192632,1.5173351787454694
0.06229676803066618,1.7219742685541535,1.5240416319648855
0.0629075206584178,1.7211856490527022,1.5305867552587062
0.06351827328616944,1.720406919707404,1.53697655929129
0.06412902591392107,1.7196381059416839,1.5432168362284429
0.0647397785416727,1.7188792309430914,1.5493131480166487
0.06535053116942433,1.7181303154887182,1.5552708156795245
0.06596128379717596,1.717391377764626,1.5610949096369058
0.0665720364249276,1.7166624331809295,1.5667902410489079
0.06718278905267921,1.7159434941841614,1.5723613541854324
0.06779354168043085,1.71523457006846,1.5778125198193238
0.06840429430818247,1.7145356667870846,1.5831477296400396
0.06901504693593409,1.7138467867656673,1.5883706916819427
0.06962579956368573,1.7131679287185455,1.5934848267591017
0.07023655219143736,1.7124990874694572,1.5984932658970517
0.070847304819189,1.711840253777819,1.6033988487500592
0.07145805744694061,1.7111914141716833,1.6082041229883628
0.07206881007469225,1.7105525507884567,1.6129113446414445
0.07267956270244387,1.7099236412243506,1.6175224793775513
0.0732903153301955,1.7093046583934774,1.6220392047008323
0.07390106795794714,1.7086955703973987,1.6264629130432857
0.07451182058569876,1.7080963404059006,1.6307947157282916
0.0751225732134504,1.7075069265496814,1.6350354477804085
0.07573332584120203,1.7069272818255194,1.6391856735533183
0.07634407846895366,1.706357354014511,1.6432456931484827
0.07695483109670527,1.7057970856137856,1.6472155495922705
0.0775655837244569,1.7052464137821235,1.6510950367407424
0.07817633635220854,1.7047052702997938,1.6548837078785597
0.07878708897996017,1.7041735815428454,1.6585808849760244
0.07939784160771181,1.7036512684720835,1.662185668570391
0.08000859423546343,1.7031382466367995,1.6656969482311055
0.08061934686321505,1.7026344261933777,1.6691134135739352
0.08123009949096668,1.7021397119387407,1.6724335657820195
0.08184085211871832,1.7016540033585972,1.6756557295954857
0.08245160474646994,1.7011771946903735,1.6787780657266564
0.08306235737422157,1.7007091750006893,1.681798583662218
0.08367311000197321,1.7002498282771215,1.6847151548065105
0.08428386262972484,1.6997990335340287,1.687525525925843
0.08489461525747646,1.6993566649321283,1.6902273328504136
0.08550536788522808,1.6989225919114272,1.692818114389037
0.08611612051297972,1.6984966793371705,1.6952953264150303
0.08672687314073135,1.69807878765833,1.6976563560788283
0.08733762576848299,1.6976687730781714,1.699898536104095
0.08794837839623461,1.6972664877364045,1.7020191591241038
0.08855913102398623,1.696871779902359,1.7040154920154709
0.08916988365173786,1.6964844941786232,1.7058847901866312
0.0897806362794895,1.6961044717145541,1.7076243117790164
0.09039138890724112,1.6957315504290311,1.7092313317395156
0.09100214153499275,1.695365565241803,1.7107031557232415
0.09161289416274439,1.6950063483127726,1.7120371337870823
0.09222364679049602,1.6946537292885218,1.7132306738339742
0.09283439941824764,1.694307535555404,1.7142812547715232
0.09344515204599926,1.6939675924984432,1.7151864393459297
0.0940559046737509,1.693633723765374,1.7159438866168875
0.09466665730150253,1.6933057515350325,1.7165513640383225
0.09527740992925417,1.6929834967893993,1.7170067591114784
0.09588816255700579,1.692666779588525,1.7173080905794318
0.09649891518475741,1.692355419347605,1.7174535191317841
0.09710966781250904,1.6920492351154368,1.7174413575911356
0.09772042044026068,1.6917480458535357,1.7172700805548051
0.09833117306801231,1.6914516707151475,1.716938333465606
0.09894192569576393,1.6911599293234312,1.716444941088935
0.09955267832351557,1.6908726420480789,1.7157889153738624
0.10016343095126719,1.690589630279645,1.7149694626785714
0.10077418357901882,1.6903107167008953,1.713985990342862
0.10138493620677044,1.6900357255544545,1.712838112590651
0.10199568883452208,1.6897644829060992,1.7115256557498855
0.10260644146227371,1.6894968169030091,1.7100486627772788
0.10321719409002535,1.6892325580263459,1.7084073970784992
0.10382794671777695,1.688971539337526,1.7066023456160884
0.10443869934552859,1.6887135967175972,1.704634221299908
0.10504945197328022,1.6884585690991198,1.7025039646563467
0.10566020460103186,1.688206298690016,1.7002127447760682
0.10627095722878349,1.6879566311888363,1.697761959539597
0.10688170985653511,1.6877094159909658,1.695153235126135
0.10749246248428675,1.6874645063852791,1.6923884248086665
0.10810321511203837,1.6872217597408012,1.6894696070443183
0.10871396773979,1.6869810376829644,1.686399082868536
0.10932472036754162,1.6867422062590731,1.683179372604567
0.10993547299529326,1.6865051360926469,1.6798132119024767
0.11054622562304489,1.68626970252629,1.6763035471222782
0.11115697825079653,1.686035785752834,1.6726535300787075
0.11176773087854816,1.685803270934495,1.6688665121673423
0.11237848350629977,1.685572048309828,1.6649460378925143
0.1129892361340514,1.6853420132883101,1.6608958378199483
0.11359998876180304,1.685113066532395,1.656719820978179
0.11421074138955467,1.684885114026955,1.652422066735276
0.11482149401730629,1.6846580671360118,1.6480068161774424
0.11543224664505793,1.6844318426467422,1.643478463018959
0.11604299927280955,1.6842063628007524,1.6388415440730535
0.11665375190056118,1.6839815553126487,1.6341007293148961
0.1172645045283128,1.6837573533759915,1.6292608115699418
0.11787525715606444,1.6835336956567262,1.624326695859613
0.11848600978381607,1.6833105262742218,1.6193033884387795
0.1190967624115677,1.6830877947701204,1.6141959855616437
0.11970751503931934,1.6828654560651624,1.6090096620087413
0.12031826766707095,1.682643470404258,1.6037496594140443
0.12092902029482258,1.6824218032900495,1.5984212744262556
0.12153977292257422,1.6822004254052705,1.5930298467429167
0.12215052555032585,1.6819793125242313,1.58758074705345
0.12276127817807747,1.6817584454137662,1.582079364928061
0.1233720308058291,1.6815378097240412,1.576531096689987
0.12398278343358073,1.68131739586961,1.5709413333074524
0.12459353606133236,1.6810971989011456,1.5653154483421339
0.125204288689084,1.6808772183683027,1.5596587859894282
0.1258150413168356,1.6806574581741698,1.5539766492477243
0.12642579394458725,1.6804379264217928,1.5482742882489147
0.12703654657233887,1.680218635253285,1.5425568887872605
0.12764729920009052,1.6799996006820312,1.5368295610772682
0.12825805182784214,1.6797808424185097,1.5310973287747904
0.12886880445559376,1.679562383690289,1.5253651182913277
0.1294795570833454,1.679344251056741,1.5196377484323857
0.13009030971109703,1.6791264742190248,1.51391992038835
0.13070106233884865,1.67890908582592,1.5082162081059507
0.13131181496660027,1.6786921212760628,1.5025310490653085
0.13192256759435192,1.678475618517176,1.496868735489344
0.13253332022210354,1.6782596178428413,1.4912334060061492
0.1331440728498552,1.6780441616874127,1.4856290377881374
0.13375482547760678,1.6778292944196167,1.4800594391866497
0.13436557810535843,1.6776150621354204,1.4745282428801798
0.13497633073311005,1.6774015124507213,1.4690388995543378
0.1355870833608617,1.6771886942944054,1.46359467212563
0.13619783598861332,1.676976657702328,1.4581986305245327
0.13680858861636494,1.6767654536127348,1.4528536470478657
0.13741934124411656,1.676555133663658,1.447562392288942
0.13803009387186818,1.6763457499927863,1.4423273316555352
0.13864084649961983,1.6761373550402991,1.4371507224776336
0.13925159912737145,1.6759300013551504,1.4320346117124196
0.1398623517551231,1.6757237414052566,1.4269808342458543
0.14047310438287472,1.675518627392028,1.4219910117918453
0.14108385701062634,1.6753147110696716,1.417066552387588
0.141694609638378,1.6751120435696685,1.412208650481201
0.1423053622661296,1.6749106752308067,1.4074182876065384
0.14291611489388123,1.6747106554351276,1.402696233638566
0.14352686752163288,1.6745120324501261,1.3980430486199669
0.1441376201493845,1.6743148532775292,1.3934590851498816
0.14474837277713615,1.6741191635089308,1.3889444913218312
0.14535912540488774,1.6739250071885698,1.3844992141986792
0.14596987803263936,1.673732426683471,1.3801230038088712
0.146580630660391,1.6735414625612057,1.3758154176483246
0.14719138328814263,1.673352153475434,1.3715758256707264
0.14780213591589428,1.6731645360594227,1.3674034157466763
0.1484128885436459,1.672978644827676,1.363297199572942
0.14902364117139752,1.672794512085806,1.3592560190092737
0.14963439379914917,1.672612167848747,1.3552785528219273
0.1502451464269008,1.6724316397673662,1.35136332381059
0.15085589905465244,1.6722529530635524,1.3475087062934392
0.15146665168240406,1.6720761304737832,1.3437129339281455
0.15207740431015568,1.6719011922011862,1.339974107840384
0.15268815693790733,1.6717281558760675,1.3362902050355068
0.15329890956565892,1.6715570365248786,1.332659087066864
0.15390966219341054,1.6713878465475298,1.329078508931516
0.1545204148211622,1.671220595703001,1.325546128168213
0.1551311674489138,1.6710552911031105,1.322059514128027
0.15574192007666546,1.670891937214329,1.3186161573898545
0.15635267270441708,1.6707305358674982,1.3152134792928583
0.1569634253321687,1.6705710862752778,1.3118488415568923
0.15757417795992035,1.6704135850571415,1.3085195559627936
0.15818493058767197,1.6702580262717226,1.3052228940639097
0.15879568321542362,1.6701044014562951,1.3019560969011228
0.15940643584317524,1.669952699673154,1.2987163846932348
0.16001718847092686,1.669802907562647,1.2955009664745416
0.1606279410986785,1.6696550094026072,1.2923070496535651
0.1612386937264301,1.6695089871738955,1.2891318494646935
0.16184944635418172,1.6693648206317893,1.2859725982877315
0.16246019898193337,1.6692224873828985,1.282826554808867
0.163070951609685,1.6690819629673257,1.2796910129983563
0.16368170423743664,1.66894322094573,1.276563310880419
0.16429245686518826,1.6688062329909985,1.2734408390719612
0.16490320949293988,1.668670968984166,1.2703210490679036
0.16551396212069153,1.6685373971142687,1.2672014612496407
0.16612471474844315,1.668405483981777,1.2640796725981098
0.1667354673761948,1.6682751947052614,1.2609533640896118
0.16734622000394642,1.6681464930309495,1.2578203077566676
0.16795697263169804,1.6680193414448057,1.2546783733952975
0.16856772525944969,1.6678937012867963,1.2515255349031218
0.16917847788720128,1.6677695328669726,1.2483598762319235
0.16978923051495293,1.667646795583018,1.2451795969400796
0.17039998314270455,1.6675254480389152,1.2419830173333857
0.17101073577045617,1.6674054481643654,1.2387685831803292
0.17162148839820782,1.6672867533346247,1.2355348699928816
0.17223224102595944,1.6671693204904048,1.232280586862661
0.17284299365371106,1.6670531062574965,1.2290045798445677
0.1734537462814627,1.6669380670657858,1.2257058348821115
0.17406449890921433,1.666824159267325,1.222383480267514
0.17467525153696598,1.6667113392531439,1.2190367886343125
0.1752860041647176,1.6665995635684796,1.2156651784786576
0.17589675679246922,1.6664887890261224,1.2122682152087405
0.17650750942022086,1.6663789728175737,1.2088456117219504
0.17711826204797246,1.6662700726217368,1.2053972285118348
0.1777290146757241,1.6661620467108558,1.2019230733068067
0.17833976730347573,1.6660548540534295,1.1984233002449398
0.17895051993122735,1.665948454413864,1.1948982085913482
0.179561272558979,1.6658428084485961,1.1913482410024732
0.18017202518673062,1.6657378777984737,1.1877739813476242
0.18078277781448224,1.6656336251771664,1.1841761520956968
0.18139353044223389,1.6655300144554033,1.1805556112770466
0.1820042830699855,1.6654270107408462,1.1769133490331525
0.18261503569773715,1.6653245804534236,1.1732504837663003
0.18322578832548878,1.6652226913959534,1.1695682579024385
0.1838365409532404,1.6651213128199251,1.1658680332826357
0.18444729358099204,1.6650204154862862,1.162151286199598
0.18505804620874364,1.6649199717211303,1.1584196020940145
0.18566879883649529,1.6648199554661791,1.1546746699306902
0.1862795514642469,1.664720342323976,1.1509182762715704
0.18689030409199853,1.6646211095977124,1.147152299065574
0.18750105671975018,1.6645222363256382,1.1433787011751682
0.1881118093475018,1.664423703310016,1.1395995236602816
0.18872256197525342,1.6643254931405924,1.1358168788417171
0.18933331460300507,1.6642275902125796,1.1320329431646867
0.18994406723075669,1.6641299807391572,1.1282499498864833
0.19055481985850833,1.6640326527585125,1.1244701816097393
0.19116557248625995,1.6639355961354592,1.1206959626853683
0.19177632511401158,1.6638388025576911,1.1169296515086904
0.19238707774176322,1.6637422655267289,1.1131736327316821
0.19299783036951482,1.663645980343655,1.1094303094164508
0.19360858299726647,1.66354994408972,1.1057020951527337
0.19421933562501809,1.6634541556019389,1.1019914061642178
0.1948300882527697,1.6633586154437978,1.0983006534270954
0.19544084088052135,1.663263325871201,1.094632234824473
0.19605159350827298,1.6631682907938206,1.090988527360959
0.19666234613602462,1.6630735157319891,1.0873718794601634
0.19727309876377624,1.6629790077693243,1.0837846033673253
0.19788385139152787,1.6628847755012555,1.080228967681121
0.1984946040192795,1.6627908289796491,1.0767071900353418
0.19910535664703113,1.662697179653732,1.073221429952596
0.19971610927478275,1.6626038403075218,1.0697737818904764
0.20032686190253438,1.662510824993985,1.0663662685004955
0.200937614530286,1.6624181489661447,1.0630008341199177
0.20154836715803764,1.662325828605369,1.0596793385134302
0.20215911978578927,1.6622338813470825,1.056403550884171
0.20276987241354089,1.6621423256041377,1.0531751441707549
0.20338062504129253,1.6620511806880955,1.049995689644595
0.20399137766904415,1.6619604667286678,1.0468666518252823
0.2046021302967958,1.6618702045915692,1.0437893837251986
0.20521288292454742,1.6617804157950409,1.040765122438128
0.20582363555229904,1.6616911224252982,1.037794985082989
0.2064343881800507,1.6616023470511556,1.0348799651127707
0.2070451408078023,1.6615141126381006,1.032020928999692
0.2076558934355539,1.6614264424620484,1.029218613302335
0.20826664606330555,1.6613393600230573,1.0264736221251372
0.20887739869105718,1.6612528889592333,1.0237864249727453
0.20948815131880882,1.6611670529610887,1.0211573550063697
0.21009890394656044,1.6610818756865895,1.018586607704284
0.21070965657431207,1.660997380677131,1.0160742399288447
0.2113204092020637,1.660913591274682,1.0136201694009663
