frequency,refractiveIndex,absorption
0.0006107526277516292,1.9079388704690288,0.0012634146886836082
0.0012215052555032584,1.9077224682392222,0.005050603962458483
0.0018322578832548875,1.907362323244593,0.01135242008748465
0.002443010511006517,1.9068592205269501,0.020153672143952795
0.003053763138758146,1.9062142530973258,0.031433208377410725
0.003664515766509775,1.905428815967321,0.04516403029470854
0.004275268394261404,1.9045045985860816,0.06131343733442671
0.004886021022013034,1.9034435757632548,0.07984320064343031
0.005496773649764663,1.9022479971731427,0.10070976421841703
0.006107526277516292,1.9009203755482391,0.12386447142874814
0.006718278905267922,1.8994634736817353,0.1492538147270632
0.00732903153301955,1.8978802903675018,0.17681970618069198
0.00793978416077118,1.8961740454133642,0.20649976632058367
0.008550536788522809,1.8943481638681827,0.23822762870654784
0.009161289416274438,1.8924062596060758,0.2719332575477832
0.009772042044026067,1.8903521184118288,0.30754327569520207
0.010382794671777697,1.8881896807101215,0.34498130033489594
0.010993547299529326,1.8859230240781124,0.38416828375826945
0.011604299927280955,1.8835563456761357,0.4250228566612455
0.012215052555032585,1.8810939447248496,0.4674616715280911
0.012825805182784214,1.8785402051497775,0.5113997437829035
0.013436557810535843,1.87589957850546,0.5567507885385545
0.014047310438287471,1.8731765672821385,0.6034275509354173
0.0146580630660391,1.870375708687805,0.6513421282371952
0.015268815693790731,1.8675015589881727,0.7004062820340862
0.01587956832154236,1.8645586784764285,0.7505317390915067
0.01649032094929399,1.8615516171341722,0.8016304795721187
0.017101073577045618,1.8584849010345832,0.8536150115473645
0.01771182620479725,1.8553630195286004,0.9063986308987662
0.018322578832548876,1.8521904132454425,0.9598956658878365
0.018933331460300507,1.8489714629295144,1.0140217058435481
0.019544084088052135,1.8457104791273122,1.0686938135774031
0.020154836715803762,1.8424116927300178,1.123830721286208
0.020765589343555393,1.839079246370337,1.1793530098419591
0.02137634197130702,1.8357171866656732,1.2351832714948778
0.021987094599058652,1.8323294572939912,1.2912462561307756
0.02259784722681028,1.828919892883758,1.3474690013267052
0.02320859985456191,1.8254922136949512,1.4037809465394606
0.023819352482313542,1.8220500210645483,1.4601140318407793
0.02443010511006517,1.8185967935868048,1.5164027816811096
0.025040857737816797,1.8151358839962761,1.5725843742213883
0.025651610365568428,1.8116705167194878,1.6285986968196549
0.026262362993320056,1.8082037860599467,1.684388388298113
0.026873115621071687,1.8047386549800026,1.739898868645865
0.027483868248823314,1.8012779544426833,1.7950783568351893
0.028094620876574942,1.7978243832762562,1.849877877444104
0.028705373504326573,1.7943805085244455,1.9042512567869845
0.0293161261320782,1.7909487662455794,1.9581551092590033
0.029926878759829835,1.7875314627244594,2.0115488145975298
0.030537631387581463,1.7841307760615297,2.0643944867579442
0.03114838401533309,1.780748758104926,2.1166569350924362
0.03175913664308472,1.7773873366918738,2.1683036185053353
0.03236988927083635,1.774048318167253,2.2193045932442192
0.03298064189858798,1.770733390148201,2.2696324549663895
0.03359139452633961,1.7674441245050698,2.3192622757004386
0.034202147154091235,1.764181980530286,2.368171536299696
0.03481289978184286,1.7609483082681443,2.4163400549616023
0.0354236524095945,1.757744351979801,2.463749912360613
0.036034405037346125,1.7545712537193248,2.5103853739185653
0.03664515766509775,1.7514300569978942,2.55623280970833
0.03725591029284938,1.748321710514706,2.601280612460578
0.037866662920601014,1.7452470719344924,2.6455191141161025
0.038477415548352635,1.7422069116929446,2.6889405013394114
0.03908816817610427,1.7392019168126038,2.7315387303813354
0.039698920803855904,1.7362326947131648,2.7733094416526236
0.040309673431607525,1.7332997770012815,2.8142498743425546
0.04092042605935916,1.7304036232263857,2.854358781392015
0.04153117868711079,1.7275446245900408,2.8936363451035967
0.04214193131486242,1.724723107597638,2.932084093647293
0.04275268394261404,1.7219393376423295,2.9697048186955963
0.04336343657036568,1.7191935225121697,3.0065024943989305
0.043974189198117304,1.716485815812504,3.0424821978903385
0.04458494182586893,1.71381632029659,3.077650031485235
0.04519569445362056,1.7111850910984576,3.1120130467236806
0.045806447081372194,1.7085921388628655,3.145579170382062
0.04641719970912382,1.7060374327680958,3.1783571325624367
0.04702795233687545,1.7035209034381589,3.2103563969517976
0.047638704964627084,1.7010424457417088,3.2415870933259394
0.048249457592378704,1.6986019214757229,3.272059952358352
0.04886021022013034,1.6961991619326704,3.301786242781159
0.049470962847881966,1.69383397035051,3.330777710930519
0.050081715475633594,1.6915061242454246,3.3590465226988306
0.05069246810338522,1.6892153776277865,3.38660520790495
0.051303220731136856,1.6869614631022611,3.4134666070825945
0.05191397335888848,1.6847440938534977,3.439643820680617
0.05252472598664011,1.6825629655191328,3.4651501606583603
0.053135478614391746,1.6804177579523476,3.489999104454874
0.05374623124214337,1.678308136876384,3.5142042513022838
0.054356983869895,1.6762337554338478,3.5377792808503252
0.05496773649764663,1.6741942556337581,3.5607379140626305
0.05557848912539826,1.6721892696995881,3.5830938763424798
0.056189241753149884,1.6702184213217008,3.6048608628423944
0.05679999438090152,1.6682813268177032,3.6260525059084743
0.057410747008653146,1.666377596204392,3.6466823446084367
0.05802149963640477,1.664506834185048,3.666763796291447
0.0586322522641564,1.6626686410558673,3.686310130124372
0.059243004891908035,1.660862613535414,3.7053344425507113
0.05985375751965967,1.659088345520938,3.7238496346158674
0.06046451014741129,1.6573454287754399,3.7418683911023796
0.061075262775162925,1.6556334535493191,3.7594031614197156
0.06168601540291455,1.6539520091404356,3.7764661421920414
0.06229676803066618,1.6523006843963155,3.7930692614882418
0.0629075206584178,1.6506790681622074,3.8092241646391085
0.06351827328616944,1.649086749678619,3.8249422015865244
0.06412902591392107,1.6475233189318257,3.840234415710939
0.0647397785416727,1.6459883669608155,3.8551115340832633
0.06535053116942433,1.6444814861239843,3.8695839590890686
0.06596128379717596,1.6430022703287999,3.8836617613728253
0.0665720364249276,1.6415503152275397,3.897354674051734
0.06718278905267921,1.6401252183820776,3.910672088148357
0.06779354168043085,1.63872657940059,3.923623049193652
0.06840429430818247,1.6373540000489013,3.9362162549513084
0.06901504693593409,1.636007084339089,3.9484600542161563
0.06962579956368573,1.6346854385978102,3.9603624466397154
0.07023655219143736,1.6333886715167203,3.9719310835371404
0.070847304819189,1.6321163941871886,3.983173269630144
0.07145805744694061,1.6308682201214113,3.9940959656810877
0.07206881007469225,1.6296437652618954,4.004705791975059
0.07267956270244387,1.6284426479811562,4.015009032606174
0.0732903153301955,1.6272644890733585,4.025011640525807
0.07390106795794714,1.6261089117394993,4.034719243310629
0.07451182058569876,1.6249755415676224,4.044137149609467
0.0751225732134504,1.62386400650946,4.053270356227458
0.07573332584120203,1.6227739368547294,4.062123555807399
0.07634407846895366,1.6217049652042939,4.070701145069569
0.07695483109670527,1.6206567264432037,4.079007233568301
0.0775655837244569,1.619628857714604,4.087045652929172
0.07817633635220854,1.6186209983953468,4.0948199665263605
0.07878708897996017,1.6176327900741105,4.10233347956348
0.07939784160771181,1.616663876532682,4.109589249520066
0.08000859423546343,1.6157139037310093,4.11659009692635
0.08061934686321505,1.6147825197965522,4.123338616430677
0.08123009949096668,1.613869375018365,4.129837188122981
0.08184085211871832,1.6129741218462783,4.136087989079033
0.08245160474646994,1.6120964148954957,4.142093005090185
0.08306235737422157,1.6112359109568215,4.147854042544928
0.08367311000197321,1.6103922690127168,4.153372740427442
0.08428386262972484,1.6095651502592714,4.1586505824002
0.08489461525747646,1.6087542181341887,4.163688908938695
0.08550536788522808,1.6079591383507663,4.168488929484655
0.08611612051297972,1.607179578937843,4.173051734587445
0.08672687314073135,1.6064152102856448,4.177378308003002
0.08733762576848299,1.6056657051973882,4.181469538719392
0.08794837839623461,1.6049307389464942,4.185326232880702
0.08855913102398623,1.6042099893392083,4.188949125580028
0.08916988365173786,1.6035031367824086,4.192338892494305
0.0897806362794895,1.6028098643563364,4.195496161334098
0.09039138890724112,1.6021298578919647,4.1984215230822794
0.09100214153499275,1.6014628060527083,4.201115542996689
0.09161289416274439,1.6008084004201317,4.203578771352733
0.09222364679049602,1.6001663355833085,4.205811753902498
0.09283439941824764,1.5995363092314856,4.207815042029064
0.09344515204599926,1.5989180222496373,4.209589202574035
0.0940559046737509,1.5983111788165587,4.211134827319142
0.09466665730150253,1.5977154865050547,4.21245254210263
0.09527740992925417,1.597130656383853,4.213543015552646
0.09588816255700579,1.596556403120799,4.214406967422219
0.09649891518475741,1.5959924450869212,4.215045176508379
0.09710966781250904,1.5954385044609474,4.2154584881434305
0.09772042044026068,1.5948943073338455,4.2156478212445725
0.09833117306801231,1.5943595838129672,4.215614174909824
0.09894192569576393,1.5938340681253758,4.215358634550879
0.09955267832351557,1.5933174987199468,4.214882377553141
0.10016343095126719,1.5928096183678284,4.2141866784558015
0.10077418357901882,1.5923101742608576,4.213272913644623
0.10138493620677044,1.5918189181075513,4.212142565553694
0.10199568883452208,1.5913356062262753,4.210797226371064
0.10260644146227371,1.5908599996352233,4.209238601246713
0.10321719409002535,1.590391864138854,4.207468511001623
0.10382794671777695,1.5899309704104272,4.205488894338081
0.10443869934552859,1.589477094070314,4.203301809552729
0.10504945197328022,1.5890300157597685,4.200909435755648
0.10566020460103186,1.588589521209846,4.198314073599332
0.10627095722878349,1.5881554013051995,4.1955181455231205
0.10688170985653511,1.5877274521424811,4.1925241955201535
0.10749246248428675,1.5873054750830982,4.18933488843443
0.10810321511203837,1.5868892768001095,4.185953008797917
0.10871396773979,1.5864786693190285,4.182381459216701
0.10932472036754162,1.5860734700523784,4.178623258319955
0.10993547299529326,1.5856735018277957,4.174681538282233
0.11054622562304489,1.5852785929095738,4.17055954193467
0.11115697825079653,1.5848885770134808,4.166260619478287
0.11176773087854816,1.584503293314786,4.1617882248168625
0.11237848350629977,1.584122586449383,4.157145911524572
0.1129892361340514,1.583746306507975,4.152337328467748
0.11359998876180304,1.5833743090232573,4.14736621509714
0.11421074138955467,1.5830064549501106,4.142236396432123
0.11482149401730629,1.5826426106387803,4.136951777755103
0.11543224664505793,1.582282647801096,4.1315163390379706
0.11604299927280955,1.5819264434697575,4.125934129121
0.11665375190056118,1.5815738799507701,4.120209259666246
0.1172645045283128,1.5812248447691148,4.1143458989078345
0.11787525715606444,1.5808792306077633,4.1083482652217
0.11848600978381607,1.580536935240163,4.1022206205367615
0.1190967624115677,1.5801978614563523,4.095967263612617
0.11970751503931934,1.579861916982861,4.089592523204838
0.12031826766707095,1.5795290143965843,4.083100751143099
0.12092902029482258,1.5791990710328405,4.076496315344137
0.12153977292257422,1.5788720088878179,4.069783592784273
0.12215052555032585,1.578547754515653,4.062966962453726
0.12276127817807747,1.5782262389203854,4.056050798316095
0.1233720308058291,1.5779073974430555,4.049039462296082
0.12398278343358073,1.5775911696442093,4.041937297317377
0.12459353606133236,1.577277499182111,4.034748620413586
0.125204288689084,1.5769663336869504,4.02747771593262
0.1258150413168356,1.5766576246313524,4.020128828856779
0.12642579394458725,1.5763513271975118,4.012706158258065
0.12703654657233887,1.57604740014126,4.005213850908872
0.12764729920009052,1.5757458056534221,3.9976559950673716
0.12825805182784214,1.5754465092187615,3.9900366144552994
0.12886880445559376,1.5751494794728802,3.982359662445666
0.1294795570833454,1.5748546880574041,3.97462901647765
0.13009030971109703,1.574562109473799,3.966848472713384
0.13070106233884865,1.5742717209361616,3.9590217409517874
0.13131181496660027,1.5739835022233306,3.9511524398132147
0.13192256759435192,1.5736974355306583,3.943244092206869
0.13253332022210354,1.5734135053217897,3.9353001210937486
0.1331440728498552,1.5731316981807757,3.9273238455542723
0.13375482547760678,1.57285200266486,3.919318477170526
0.13436557810535843,1.5725744091582698,3.9112871167315504
0.13497633073311005,1.572298909727318,3.9032327512683027
0.1355870833608617,1.572025497977142,3.895158251423987
0.13619783598861332,1.5717541689103822,3.887066369165391
0.13680858861636494,1.5714849187880855,3.8789597358374417
0.13741934124411656,1.5712177449931335,3.870840860564251
0.13803009387186818,1.5709526458964627,3.8627121289981092
0.13864084649961983,1.570689620726335,3.8545758024148853
0.13925159912737145,1.5704286694409257,3.8464340171566658
0.1398623517551231,1.5701697926044522,3.8382887844183005
0.14047310438287472,1.5699129912670724,3.830141990374427
0.14108385701062634,1.5696582668487737,3.82199539664327
0.141694609638378,1.569405621027437,3.813850641080977
0.1423053622661296,1.5691550556312712,3.8057092389007314
0.14291611489388123,1.568906572535773,3.797572584108615
0.14352686752163288,1.5686601735653756,3.789441951247818
0.1441376201493845,1.5684158603999214,3.7813184974426024
0.14474837277713615,1.5681736344860764,3.7732032647306215
0.14535912540488774,1.5679334969537952,3.7650971826736415
0.14596987803263936,1.567695448537927,3.7570010712343618
0.146580630660391,1.5674594895050364,3.7489156439067295
0.14719138328814263,1.5672256195855006,3.740841511087196
0.14780213591589428,1.566993837910918,3.732779183671885
0.1484128885436459,1.5667641429568657,3.7247290768669066
0.14902364117139752,1.5665365324910099,3.7166915141951327
0.14963439379914917,1.5663110035265715,3.708666731685327
0.1502451464269008,1.566087552281126,3.7006548822279535
0.15085589905465244,1.565866174140705,3.692656040079657
0.15146665168240406,1.5656468636291525,3.6846702055028095
0.15207740431015568,1.5654296143826811,3.6766973095207667
0.15268815693790733,1.5652144191295407,3.6687372187738907
0.15329890956565892,1.5650012696747295,3.6607897404583425
0.15390966219341054,1.5647901568896305,3.652854627330452
0.1545204148211622,1.564581070706478,3.644931582760571
0.1551311674489138,1.5643740001175206,3.637020265818338
0.15574192007666546,1.5641689331787454,3.629120296372784
0.15635267270441708,1.5639658570180295,3.621231260190449
0.1569634253321687,1.5637647578475553,3.6133527140150576
0.15757417795992035,1.5635656209803308,3.6054841906117994
0.15818493058767197,1.5633684308506384,3.5976252037607583
0.15879568321542362,1.5631731710382417,3.5897752531833484
0.15940643584317524,1.562979824296154,3.5819338293864855
0.16001718847092686,1.562788372581778,3.5741004184093947
0.1606279410986785,1.5625987970912225,3.566274506458594
0.1612386937264301,1.562411078296585,3.5584555844177084
0.16184944635418172,1.562225195985994,3.5506431522172375
0.16246019898193337,1.5620411293061944,3.542836723053061
0.163070951609685,1.5618588568074707,3.535035827440153
0.16368170423743664,1.5616783564906698,3.5272400170906755
0.16429245686518826,1.5614996058561252,3.519448868605022
0.16490320949293988,1.5613225819542418,3.5116619869663714
0.16551396212069153,1.5611472614375277,3.503879008827818
0.16612471474844315,1.5609736206138478,3.4960996055849787
0.1667354673761948,1.560801635500679,3.4883234862250845
0.16734622000394642,1.5606312818801433,3.4805503999455216
0.16795697263169804,1.5604625353546,3.472780138535588
0.16856772525944969,1.56029537140258,3.465012538516164
0.16917847788720128,1.560129765434853,3.4572474830315647
0.16978923051495293,1.5599656928504064,3.4494849034911286
0.17039998314270455,1.5598031290921441,3.4417247809558815
0.17101073577045617,1.559642049702087,3.4339671472695925
0.17162148839820782,1.5594824303758947,3.426212085931681
0.17223224102595944,1.5593242470165032,3.4184597327120767
0.17284299365371106,1.5591674757867025,3.4107102760078187
0.1734537462814627,1.55901209316047,3.4029639569436005
0.17406449890921433,1.5588580759728916,3.395221069216517
0.17467525153696598,1.558705401468501,3.3874819586898446
0.1752860041647176,1.5585540473478832,3.3797470227377464
0.17589675679246922,1.5584039918123909,3.37201670934591
0.17650750942022086,1.5582552136068373,3.364291515974008
0.17711826204797246,1.5581076920600214,3.356571988184541
0.1777290146757241,1.5579614071229815,3.3488587180459612
0.17833976730347573,1.557816339404831,3.341152342315972
0.17895051993122735,1.5576724702061129,3.3334535404154613
0.179561272558979,1.5575297815495346,3.325763032198751
0.18017202518673062,1.5573882562080292,3.318081575531888
0.18078277781448224,1.557247877730044,3.310409963687861
0.18139353044223389,1.5571086304620076,3.3027490225693934
0.1820042830699855,1.5569704995679023,3.2950996077698926
0.18261503569773715,1.5568334710459102,3.2874626014857466
0.18322578832548878,1.5566975317420833,3.279838909289198
0.1838365409532404,1.5565626693610226,3.272229456777097
0.18444729358099204,1.55642887247354,3.264635186105898
0.18505804620874364,1.5562961305213039,3.2570570524277764
0.18566879883649529,1.5561644338184666,3.2494960202404313
0.1862795514642469,1.556033773550292,3.241953059663879
0.18689030409199853,1.5559041417688046,3.2344291426596263
0.18750105671975018,1.5557755313854886,3.2269252392044314
0.1881118093475018,1.5556479361610862,3.2194423134340386
0.18872256197525342,1.5555213506925432,3.2119813197705698
0.18933331460300507,1.5553957703971601,3.2045431990485196
0.18994406723075669,1.5552711914940232,3.1971288746526336
0.19055481985850833,1.5551476109827855,3.1897392486826153
0.19116557248625995,1.555025026619892,3.182375198158626
0.19177632511401158,1.5549034368923356,3.1750375712811616
0.19238707774176322,1.554782840989048,3.16772718375975
0.19299783036951482,1.5546632387700337,3.1604448152230806
0.19360858299726647,1.554544630733359,3.153191205724319
0.19421933562501809,1.5544270179801232,3.145967052354843
0.1948300882527697,1.554310402177531,3.1387730059778285
0.19544084088052135,1.554194785520204,3.1316096680948844
0.19605159350827298,1.5540801706898706,3.124477587856814
0.19666234613602462,1.5539665608135664,3.1173772592293556
0.19727309876377624,1.5538539594205063,3.1103091183258047
0.19788385139152787,1.553742370397762,3.103273540914665
0.1984946040192795,1.553631797944912,3.096270840113676
0.19910535664703113,1.553522246527806,3.0893012642774282
0.19971610927478275,1.5534137208316159,3.0823649950882346
0.20032686190253438,1.5533062257133168,3.075462145856341
0.200937614530286,1.5531997661537675,3.068592760037222
0.20154836715803764,1.553094347209555,3.0617568099716603
0.20215911978578927,1.5529899739647473,3.054954195853928
0.20276987241354089,1.5528866514827298,3.048184744932241
0.20338062504129253,1.552784384758281,3.0414482109460494
0.20399137766904415,1.5526831786700357,3.034744273802097
0.2046021302967958,1.5525830379335028,3.0280725394919803
0.20521288292454742,1.5524839670547819,3.021432540252472
0.20582363555229904,1.5523859702851326,3.014823734968906
0.2064343881800507,1.5522890515765397,3.0082455098210383
0.2070451408078023,1.5521932145384192,3.001697179171191
0.2076558934355539,1.5520984623955965,2.9951779866912736
0.20826664606330555,1.5520047979477019,2.988687106727395
0.20887739869105718,1.5519122235300926,2.982223645896937
0.20948815131880882,1.5518207409764413,2.975786644915593
0.21009890394656044,1.5517303515830938,2.969375080646979
0.21070965657431207,1.5516410560753109,2.962987868371296
0.2113204092020637,1.551552854575498,2.9566238642644955
0.21193116182981533,1.5514657465735142,2.950281868081821
0.21254191445756698,1.5513797308991522,2.9439606260370725
