frequency,refractiveIndex,absorption
0.0006107526277516292,1.271681631034614,-0.0009499794329951629
0.0012215052555032584,1.2718809063169048,-0.0037972219261924035
0.0018322578832548875,1.272211930168784,-0.008533702748108154
0.002443010511006517,1.2726730760993223,-0.015146253032394199
0.003053763138758146,1.2732621174529504,-0.02361685717736493
0.003664515766509775,1.2739762746170253,-0.03392304799652527
0.004275268394261404,1.2748122714522023,-0.046038380709305146
0.004886021022013034,1.2757663982903404,-0.0599329643782163
0.005496773649764663,1.2768345787625452,-0.07557402854990203
0.006107526277516292,1.2780124378324178,-0.09292650352291408
0.006718278905267922,1.279295368678651,-0.11195359458264921
0.00732903153301955,1.280678596451065,-0.13261733336614054
0.00793978416077118,1.2821572373644132,-0.15487909287248988
0.008550536788522809,1.2837263520491287,-0.17870005616770804
0.009161289416274438,1.2853809925100381,-0.20404163225391805
0.009772042044026067,1.2871162424262037,-0.23086581566681444
0.010382794671777697,1.2889272508418501,-0.2591354889980744
0.010993547299529326,1.2908092595434226,-0.28881466964877406
0.011604299927280955,1.2927576245928951,-0.3198687037015685
0.012215052555032585,1.2947678325988774,-0.35226441089391386
0.012825805182784214,1.2968355123652147,-0.38597018534180555
0.013436557810535843,1.298956442571546,-0.42095605698413674
0.014047310438287471,1.3011265561234255,-0.4571937187644227
0.0146580630660391,1.3033419417701828,-0.49465652441503055
0.015268815693790731,1.3055988435351629,-0.5333194614209833
0.01587956832154236,1.3078936584422012,-0.5731591033675209
0.01649032094929399,1.3102229329586432,-0.6141535454600983
0.017101073577045618,1.3125833585132074,-0.6562823265766233
0.01771182620479725,1.3149717663884284,-0.6995263407922246
0.018322578832548876,1.3173851222337785,-0.7438677409213241
0.018933331460300507,1.3198205203981819,-0.7892898362575854
0.019544084088052135,1.3222751782387934,-0.8357769863658548
0.020154836715803762,1.3247464305274181,-0.8833144924910944
0.020765589343555393,1.3272317240455949,-0.9318884878981311
0.02137634197130702,1.329728612434506,-0.9814858282386484
0.021987094599058652,1.3322347513449906,-1.032093982858145
0.02259784722681028,1.3347478939162951,-1.083700927799408
0.02320859985456191,1.3372658865989064,-1.136295041127651
0.023819352482313542,1.3397866653260226,-1.1898650010949785
0.02443010511006517,1.3423082520301803,-1.2443996875698644
0.025040857737816797,1.3448287514952781,-1.2998880870839618
0.025651610365568428,1.347346348529598,-1.3563192017865053
0.026262362993320056,1.3498593054419987,-1.4136819625464685
0.026873115621071687,1.352365959801367,-1.4719651464000234
0.027483868248823314,1.354864722457705,-1.5311572985079311
0.028094620876574942,1.3573540758026421,-1.5912466587575667
0.028705373504326573,1.3598325722467166,-1.6522210931206407
0.0293161261320782,1.362298832890983,-1.714068029857733
0.029926878759829835,1.3647515463708075,-1.7767744006421604
0.030537631387581463,1.36718946785044,-1.8403265866609626
0.03114838401533309,1.3696114181476122,-1.9047103697362524
0.03175913664308472,1.3720162829684799,-1.9699108884970054
0.03236988927083635,1.3744030122340423,-2.035912599619574
0.03298064189858798,1.3767706194803055,-2.10269924414309
0.03359139452633961,1.379118181315542,-2.17025381885412
0.034202147154091235,1.3814448369189547,-2.23855855272411
0.03481289978184286,1.383749787566257,-2.307594888370768
0.0354236524095945,1.386032296168682,-2.377343468503652
0.036034405037346125,1.3882916868129787,-2.4477841273022523
0.03664515766509775,1.3905273442909905,-2.518895886662999
0.03725591029284938,1.3927387136084732,-2.590656957239474
0.037866662920601014,1.3949252994636663,-2.6630447441888676
0.038477415548352635,1.397086665687217,-2.736035857524286
0.03908816817610427,1.3992224346358613,-2.809606126961904
0.039698920803855904,1.4013322865332718,-2.883730621139145
0.040309673431607525,1.4034159587522534,-2.9583836710678737
0.04092042605935916,1.4054732450333258,-3.033538897676719
0.04153117868711079,1.4075039946356045,-3.109169243282302
0.04214193131486242,1.4095081114165104,-3.185247006822227
0.04275268394261404,1.4114855528378039,-3.2617438826677594
0.04336343657036568,1.4134363288958862,-3.338631002828099
0.043974189198117304,1.4153605009752184,-3.4158789823462294
0.04458494182586893,1.41725818062422,-3.493457967677957
0.04519569445362056,1.4191295282536733,-3.5713376878393768
0.045806447081372194,1.4209747517582225,-3.6494875080982148
0.04641719970912382,1.42279410506211,-3.7278764859799685
0.04702795233687545,1.4245878865908062,-3.8064734293531406
0.047638704964627084,1.4263564376706759,-3.885246956353252
0.048249457592378704,1.428100140859231,-3.9641655569022034
0.04886021022013034,1.4298194182089885,-4.043197655575049
0.049470962847881966,1.4315147294682828,-4.122311675565448
0.050081715475633594,1.4331865702227327,-4.201476103499686
0.05069246810338522,1.4348354699813635,-4.280659554848886
0.051303220731136856,1.4364619902116986,-4.359830839688992
0.05191397335888848,1.4380667223283392,-4.438959028560411
0.05252472598664011,1.4396502856396958,-4.518013518182485
0.053135478614391746,1.441213325257882,-4.596964096778476
0.05374623124214337,1.4427565099767534,-4.675781008773562
0.054356983869895,1.4442805301232509,-4.754435018631788
0.05496773649764663,1.4457860953873691,-4.832897473603049
0.05557848912539826,1.447273932635964,-4.911140365158524
0.056189241753149884,1.4487447837158192,-4.989136388898743
0.05679999438090152,1.4501994032513226,-5.066859002725896
0.057410747008653146,1.4516385564420198,-5.144282483080367
0.05802149963640477,1.4530630168654606,-5.221381979049577
0.0586322522641564,1.4544735642904896,-5.298133564165868
0.059243004891908035,1.4558709825062235,-5.374514285718841
0.05985375751965967,1.4572560571717796,-5.450502211419015
0.06046451014741129,1.4586295736917374,-5.526076473256884
0.061075262775162925,1.4599923151222207,-5.601217308413388
0.06168601540291455,1.4613450601123177,-5.675906097087506
0.06229676803066618,1.4626885808854568,-5.750125397117331
0.0629075206584178,1.464023641265161,-5.823858975282045
0.06351827328616944,1.4653509947495167,-5.897091835181646
0.06412902591392107,1.4666713826384374,-5.969810241604889
0.0647397785416727,1.4679855322176967,-6.042001741304462
0.06535053116942433,1.4692941550035596,-6.113655180110266
0.06596128379717596,1.470597945051494,-6.184760716325031
0.0665720364249276,1.4718975773325476,-6.25530983035347
0.06718278905267921,1.4731937061804594,-6.325295330532695
0.06779354168043085,1.4744869638126603,-6.394711355138255
0.06840429430818247,1.4757779589279616,-6.46355337055539
0.06901504693593409,1.4770672753836025,-6.53181816561303
0.06962579956368573,1.4783554709541022,-6.599503842093764
0.07023655219143736,1.4796430761742192,-6.666609801438427
0.070847304819189,1.4809305932679957,-6.733136727683013
0.07145805744694061,1.4822184951658548,-6.799086566669144
0.07206881007469225,1.483507224611308,-6.864462501585713
0.07267956270244387,1.4847971933587782,-6.929268924910348
0.0732903153301955,1.4860887814637591,-6.99351140682665
0.07390106795794714,1.4873823366663235,-7.057196660209159
0.07451182058569876,1.4886781738688288,-7.120332502275455
0.0751225732134504,1.489976574708374,-7.1829278130165894
0.07573332584120203,1.4912777872244025,-7.244992490529284
0.07634407846895366,1.492582025621619,-7.3065374033797
0.07695483109670527,1.4938894701281025,-7.367574340143984
0.0775655837244569,1.495200266948393,-7.428115956275242
0.07817633635220854,1.4965145283109083,-7.488175718461401
0.07878708897996017,1.4978323326090421,-7.547767846642614
0.07939784160771181,1.4991537246348816,-7.606907253868995
0.08000859423546343,1.500478715904317,-7.665609484186744
0.08061934686321505,1.5018072850720843,-7.723890648748317
0.08123009949096668,1.5031393784350626,-7.7817673603484465
0.08184085211871832,1.5044749105218218,-7.83925666659786
0.08245160474646994,1.505813764766312,-7.896375981948182
0.08306235737422157,1.5071557942632623,-7.9531430187894365
0.08367311000197321,1.5085008226026377,-8.009575717846605
0.08428386262972484,1.5098486447803294,-8.065692178103305
0.08489461525747646,1.5111990281819996,-8.121510586484279
0.08550536788522808,1.5125517136367381,-8.17704914753381
0.08611612051297972,1.5139064165371452,-8.232326013321593
0.08672687314073135,1.5152628280220086,-8.287359213816648
0.08733762576848299,1.5166206162178517,-8.342166587960111
0.08794837839623461,1.517979427535159,-8.39676571567564
0.08855913102398623,1.519338888015168,-8.451173851044864
0.08916988365173786,1.520698604722807,-8.505407856879367
0.0897806362794895,1.5220581671812767,-8.559484140910774
0.09039138890724112,1.523417148843671,-8.613418593819837
0.09100214153499275,1.52477510859688,-8.667226529315379
0.09161289416274439,1.5261315922929592,-8.72092262646901
0.09222364679049602,1.5274861343030666,-8.77452087450424
0.09283439941824764,1.5288382590890042,-8.828034520227199
0.09344515204599926,1.5301874827873931,-8.881476018278098
0.0940559046737509,1.5315333148014247,-8.93485698437417
0.09466665730150253,1.5328752593952342,-8.988188151698726
0.09527740992925417,1.5342128172858474,-9.04147933058363
0.09588816255700579,1.535545487227782,-9.094739371618395
0.09649891518475741,1.536872767585368,-9.147976132305736
0.09710966781250904,1.5381941578879843,-9.20119644737037
0.09772042044026068,1.5395091603634676,-9.254406102813576
0.09833117306801231,1.5408172814450631,-9.307609813792446
0.09894192569576393,1.542118033247423,-9.36081120638708
0.09955267832351557,1.543410935007301,-9.414012803305148
0.10016343095126719,1.54469551448476,-9.46721601355697
0.10077418357901882,1.545971309320858,-9.520421126120674
0.10138493620677044,1.5472378683479875,-9.57362730760113
0.10199568883452208,1.548494752849274,-9.62683260387064
0.10260644146227371,1.5497415377635855,-9.680033945665855
0.10321719409002535,1.5509778128329899,-9.733227158099746
0.10382794671777695,1.5522031836897405,-9.78640697403355
0.10443869934552859,1.5534172728800202,-9.839567051239019
0.10504945197328022,1.5546197208220878,-9.892699993267659
0.10566020460103186,1.5558101866965697,-9.945797373931626
0.10627095722878349,1.556988349266991,-9.998849765286732
0.10688170985653511,1.558153907628918,-10.051846768995855
0.10749246248428675,1.559306581886283,-10.104777050942024
0.10810321511203837,1.5604461137538093,-10.15762837894591
0.10871396773979,1.561572267084678,-10.210387663435373
0.10932472036754162,1.5626848283228623,-10.26304100090461
0.10993547299529326,1.5637836068798427,-10.31557371998991
0.11054622562304489,1.5648684354356228,-10.367970429984961
0.11115697825079653,1.5659391701643066,-10.420215071607672
0.11176773087854816,1.5669956908846583,-10.472290969828276
0.11237848350629977,1.5680379011364092,-10.524180888558805
0.1129892361340514,1.5690657281832292,-10.575867087003934
0.11359998876180304,1.570079122943542,-10.627331377467605
0.11421074138955467,1.571078059850633,-10.67855518440509
0.11482149401730629,1.572062536643592,-10.729519604513573
0.11543224664505793,1.5730325740909545,-10.780205467647852
0.11604299927280955,1.573988215649041,-10.830593398349427
0.11665375190056118,1.5749295270571095,-10.88066387778108
0.1172645045283128,1.5758565958717372,-10.930397305853631
0.11787525715606444,1.576769530942862,-10.979774063340644
0.11848600978381607,1.5776684618341248,-11.028774573773907
0.1190967624115677,1.578553538190278,-11.07737936492066
0.11970751503931934,1.5794249290545044,-11.125569129643697
0.12031826766707095,1.580282822138614,-11.173324785952937
0.12092902029482258,1.5811274230491603,-11.220627536060878
0.12153977292257422,1.5819589544726012,-11.267458924261668
0.12215052555032585,1.5827776553226838,-11.31380089345621
0.12276127817807747,1.583583779853272,-11.359635840158058
0.1233720308058291,1.584377596739893,-11.404946667816725
0.12398278343358073,1.585159388133272,-11.449716838306243
0.12459353606133236,1.5859294486881637,-11.493930421431552
0.125204288689084,1.5866880845707911,-11.537572142317021
0.1258150413168356,1.5874356124481575,-11.580627426545197
0.12642579394458725,1.5881723584625191,-11.623082442928894
0.12703654657233887,1.5888986571942778,-11.664924143800178
0.12764729920009052,1.589614850616465,-11.706140302716612
0.12825805182784214,1.590321287044012,-11.746719549489466
0.12886880445559376,1.591018320080895,-11.786651402449072
0.1294795570833454,1.5917063075682125,-11.82592629787176
0.13009030971109703,1.5923856105361758,-11.864535616501401
0.13070106233884865,1.593056592162896,-11.90247170710946
0.13131181496660027,1.5937196167428516,-11.939727907042927
0.13192256759435192,1.5943750486677064,-11.976298559724478
0.13253332022210354,1.5950232514221814,-12.012179029071676
0.1331440728498552,1.5956645865975454,-12.04736571081586
0.13375482547760678,1.5962994129251518,-12.081856040708356
0.13436557810535843,1.5969280853324157,-12.115648499610204
0.13497633073311005,1.597550954023471,-12.148742615471754
0.1355870833608617,1.5981683635866861,-12.181138962214142
0.13619783598861332,1.598780652131062,-12.212839155536898
0.13680858861636494,1.5993881504534508,-12.243845845680537
0.13741934124411656,1.5999911812384247,-12.27416270718349
0.13803009387186818,1.6005900582925137,-12.303794425679165
0.13864084649961983,1.6011850858143781,-12.332746681787222
0.13925159912737145,1.6017765577024177,-12.361026132162404
0.1398623517551231,1.6023647569011785,-12.388640387765914
0.14047310438287472,1.60294995478779,-12.415597989439703
0.14108385701062634,1.6035324105995747,-12.441908380863852
0.141694609638378,1.6041123709038152,-12.467581878987378
0.1423053622661296,1.60469006911059,-12.49262964202957
0.14291611489388123,1.6052657250294484,-12.517063635151176
0.14352686752163288,1.6058395444705509,-12.540896593908526
0.1441376201493845,1.6064117188908422,-12.56414198559834
0.14474837277713615,1.6069824250856368,-12.586813968619943
0.14535912540488774,1.607551824925949,-12.608927349971557
0.14596987803263936,1.608120065141708,-12.630497541016792
0.146580630660391,1.608687277150943,-12.651540511651683
0.14719138328814263,1.6092535769348746,-12.67207274301089
0.14780213591589428,1.6098190649587345,-12.692111178855956
0.1484128885436459,1.610383826138033,-12.711673175790901
0.14902364117139752,1.6109479298498572,-12.730776452454306
0.14963439379914917,1.6115114299887119,-12.749439037838503
0.1502451464269008,1.612074365066239,-12.767679218890756
0.15085589905465244,1.612636758354113,-12.785515487552875
0.15146665168240406,1.613198618069247,-12.80296648739572
0.15207740431015568,1.6137599376003644,-12.820050960008606
0.15268815693790733,1.6143206957748835,-12.836787691301998
0.15329890956565892,1.6148808571649622,-12.853195457884715
0.15390966219341054,1.6154403724314448,-12.869292973673508
0.1545204148211622,1.6159991787043724,-12.885098836894786
0.1551311674489138,1.616557199998595,-12.900631477638038
0.15574192007666546,1.6171143476630045,-12.915909106112418
0.15635267270441708,1.6176705208617312,-12.930949661765725
0.1569634253321687,1.6182256070856287,-12.945770763414291
0.15757417795992035,1.6187794826923163,-12.960389660531272
0.15818493058767197,1.6193320134728952,-12.974823185841204
0.15879568321542362,1.6198830552434789,-12.989087709358252
0.15940643584317524,1.6204324544595674,-13.003199094005508
0.16001718847092686,1.6209800488512498,-13.017172652947389
0.1606279410986785,1.6215256680771941,-13.031023108758422
0.1612386937264301,1.6220691343953182,-13.044764554550481
0.16184944635418172,1.6226102633480124,-13.058410417169323
0.16246019898193337,1.6231488644597323,-13.071973422571283
0.163070951609685,1.6236847419448381,-13.085465563472914
0.16368170423743664,1.6242176954233987,-13.098898069374107
0.16429245686518826,1.6247475206428474,-13.112281379031135
0.16490320949293988,1.6252740102032113,-13.125625115462206
0.16551396212069153,1.625796954283762,-13.13893806354857
0.16612471474844315,1.6263161413688936,-13.152228150294643
0.1667354673761948,1.6268313589710373,-13.165502427795293
0.16734622000394642,1.6273423943485386,-13.178767058951662
0.16795697263169804,1.6278490352163202,-13.192027305971044
0.16856772525944969,1.6283510704473345,-13.20528752167069
0.16917847788720128,1.6288482907627562,-13.218551143602
0.16978923051495293,1.6293404894089805,-13.231820690999276
0.17039998314270455,1.6298274628195042,-13.245097764549035
0.17101073577045617,1.6303090112598866,-13.258383048966015
0.17162148839820782,1.630784939454011,-13.271676318353574
0.17223224102595944,1.6312550571899793,-13.284976444316232
0.17284299365371106,1.6317191799040223,-13.298281406785856
0.1734537462814627,1.6321771292409364,-13.31158830750916
0.17406449890921433,1.6326287335895968,-13.324893386143302
0.17467525153696598,1.6330738285922552,-13.33819203888923
0.1752860041647176,1.6335122576263557,-13.351478839593998
0.17589675679246922,1.633943872257769,-13.364747563238272
0.17650750942022086,1.6343685326644095,-13.377991211720676
0.17711826204797246,1.6347861080293176,-13.391202041847155
0.1777290146757241,1.635196476902407,-13.404371595419331
0.17833976730347573,1.635599527530167,-13.417490731318166
0.17895051993122735,1.635995158152716,-13.430549659470461
0.179561272558979,1.6363832772677644,-13.443537976574957
0.18017202518673062,1.636763803861078,-13.45644470347209
0.18078277781448224,1.6371366676031864,-13.46925832402556
0.18139353044223389,1.6375018090122158,-13.481966825387435
0.1820042830699855,1.637859179582747,-13.494557739512194
0.18261503569773715,1.6382087418808167,-13.507018185783066
0.18322578832548878,1.638550469605177,-13.519334914612696
0.1838365409532404,1.6388843476151211,-13.531494351875413
0.18444729358099204,1.639210371925202,-13.543482644033018
0.18505804620874364,1.639528549667336,-13.55528570380686
0.18566879883649529,1.639838899020827,-13.56688925625727
0.1862795514642469,1.6401414491109507,-13.578278885125055
0.18689030409199853,1.6404362398768437,-13.589440079294517
0.18750105671975018,1.6407233219094852,-13.600358279235564
0.1881118093475018,1.6410027562606735,-13.611018923286682
0.18872256197525342,1.6412746142239456,-13.621407493639904
0.18933331460300507,1.6415389770884647,-13.6315095618938
0.18994406723075669,1.6417959358669798,-13.641310834040821
0.19055481985850833,1.6420455909989977,-13.650797194759027
0.19116557248625995,1.6422880520303602,-13.659954750885262
0.19177632511401158,1.642523437270517,-13.668769873941377
0.19238707774176322,1.6427518734287394,-13.677229241603914
0.19299783036951482,1.6429734952306736,-13.685319877992669
0.19360858299726647,1.6431884450165537,-13.693029192680523
0.19421933562501809,1.6433968723225285,-13.700345018309005
0.1948300882527697,1.64359893344649,-13.707255646719123
0.19544084088052135,1.643794790999884,-13.713749863499045
0.19605159350827298,1.6439846134469736,-13.719816980859967
0.19666234613602462,1.6441685746330126,-13.725446868760626
0.19727309876377624,1.644346853302855,-13.730629984199895
0.19788385139152787,1.644519632611451,-13.735357398610141
0.1984946040192795,1.6446870996277727,-13.739620823282788
0.19910535664703113,1.6448494448336095,-13.743412632771523
0.19971610927478275,1.6450068616187552,-13.746725886217435
0.20032686190253438,1.6451595457740236,-13.749554346552177
0.200937614530286,1.6453076949835637,-13.751892497539334
0.20154836715803764,1.6454515083179022,-13.753735558620408
0.20215911978578927,1.6455911857291239,-13.755079497538068
0.20276987241354089,1.645726927549569,-13.755921040720736
0.20338062504129253,1.64585893399542,-13.75625768140702
0.20399137766904415,1.6459874046764744,-13.75608768551043
0.2046021302967958,1.6461125381134218,-13.75541009521902
0.20521288292454742,1.6462345312638464,-13.754224730337352
0.20582363555229904,1.6463535790581938,-13.752532187380101
0.2064343881800507,1.6464698739468484,-13.750333836438525
0.2070451408078023,1.6465836054594527,-13.747631815840974
0.2076558934355539,1.6466949597775544,-13.744429024637789
0.20826664606330555,1.6468041193215794,-13.740729112949152
0.20887739869105718,1.6469112623531448,-13.736536470212108
