frequency,refractiveIndex,absorption
0.0006107526277516292,1.0115403196587036,-0.05055960133037192
0.0012215052555032584,1.0417863961569085,-0.10067787370239224
0.0018322578832548875,1.0694256774311521,-0.15182465165118403
0.002443010511006517,1.0944436395782131,-0.2043889759577668
0.003053763138758146,1.1171460099954558,-0.2581781910541528
0.003664515766509775,1.137886053842477,-0.3127878784439613
0.004275268394261404,1.1569707182830564,-0.36777414167802225
0.004886021022013034,1.1746450412432112,-0.4227192855792392
0.005496773649764663,1.191100152256652,-0.4772529540456478
0.006107526277516292,1.2064853035027194,-0.5310562839343597
0.006718278905267922,1.2209184301249818,-0.5838599330282824
0.00732903153301955,1.234494284781981,-0.635440107259936
0.00793978416077118,1.2472904289615157,-0.6856141230183503
0.008550536788522809,1.259371580635942,-0.7342360543506282
0.009161289416274438,1.2707927608841554,-0.7811926428908583
0.009772042044026067,1.2816015769659028,-0.8263995124525162
0.010382794671777697,1.2918398863048675,-0.8697976847177395
0.010993547299529326,1.3015450154697208,-0.9113503804785335
0.011604299927280955,1.3107506578286192,-0.9510400901972708
0.012215052555032585,1.3194875380921824,-0.988865899783413
0.012825805182784214,1.3277839070812738,-1.0248410594740096
0.013436557810535843,1.3356659125145542,-1.0589907847814573
0.014047310438287471,1.343157879137709,-1.0913502786662133
0.0146580630660391,1.3502825225609374,-1.1219629636864272
0.015268815693790731,1.357061114680853,-1.150878912173902
0.01587956832154236,1.3635136138192092,-1.1781534617312608
0.01649032094929399,1.3696587692204953,-1.2038460027100173
0.017101073577045618,1.3755142069697197,-1.2280189239111645
0.01771182620479725,1.3810965024783053,-1.250736702593452
0.018322578832548876,1.3864212432664698,-1.2720651249835495
0.018933331460300507,1.3915030847187508,-1.2920706238311774
0.019544084088052135,1.3963558007127979,-1.3108197201064211
0.020154836715803762,1.4009923304515541,-1.3283785566482886
0.020765589343555393,1.4054248224137535,-1.3448125123997496
0.02137634197130702,1.40966467603837,-1.3601858867606178
0.021987094599058652,1.4137225815458732,-1.3745616445220223
0.02259784722681028,1.4176085581505404,-1.3880012127804529
0.02320859985456191,1.4213319908164666,-1.400564322143403
0.023819352482313542,1.424901665642883,-1.4123088854147274
0.02443010511006517,1.4283258039218703,-1.423290907770315
0.025040857737816797,1.4316120948865505,-1.4335644231994524
0.025651610365568428,1.4347677271549104,-1.4431814526851852
0.026262362993320056,1.4377994188695322,-1.4521919802308294
0.026873115621071687,1.4407134465338793,-1.4606439434075333
0.027483868248823314,1.4435156725492897,-1.4685832356025705
0.028094620876574942,1.4462115714619657,-1.4760537175938193
0.028705373504326573,1.4488062549351701,-1.4830972364660762
0.0293161261320782,1.4513044954676322,-1.4897536502246
0.029926878759829835,1.453710748884673,-1.4960608567552192
0.030537631387581463,1.4560291756333668,-1.5020548260323008
0.03114838401533309,1.458263660917037,-1.5077696346921774
0.03175913664308472,1.460417833707625,-1.5132375022719669
0.03236988927083635,1.4624950846769222,-1.5184888285687275
0.03298064189858798,1.4644985830892383,-1.5235522317025907
0.03359139452633961,1.4664312926991803,-1.5284545865757109
0.034202147154091235,1.4682959866985703,-1.533221063506635
0.03481289978184286,1.4700952617564833,-1.537875166892564
0.0354236524095945,1.4718315511958544,-1.5424387738097403
0.036034405037346125,1.473507137349325,-1.5469321725088603
0.03664515766509775,1.4751241631358145,-1.5513741007978008
0.03725591029284938,1.4766846428980867,-1.5557817843317143
0.037866662920601014,1.4781904725400514,-1.5601709748503627
0.038477415548352635,1.4796434390010245,-1.5645559884162443
0.03908816817610427,1.4810452291025555,-1.5689497437157474
0.039698920803855904,1.4823974378017635,-1.5733638004898167
0.040309673431607525,1.4837015758835082,-1.5778083981617776
0.04092042605935916,1.4849590771220995,-1.5822924947273487
0.04153117868711079,1.486171304941633,-1.5868238059680884
0.04214193131486242,1.4873395586025797,-1.591408845042728
0.04275268394261404,1.4884650789407137,-1.5960529625041322
0.04336343657036568,1.4895490536831337,-1.6007603867800475
0.043974189198117304,1.490592622364758,-1.6055342651470663
0.04458494182586893,1.4915968808674427,-1.6103767052171967
0.04519569445362056,1.4925628856027133,-1.6152888169468762
0.045806447081372194,1.4934916573579615,-1.620270755166828
0.04641719970912382,1.4943841848249506,-1.6253217626234644
0.04702795233687545,1.4952414278285209,-1.6304402135103475
0.047638704964627084,1.4960643202724557,-1.6356236574607181
0.048249457592378704,1.4968537728186786,-1.6408688639628097
0.04886021022013034,1.497610675315127,-1.6461718671508476
0.049470962847881966,1.4983358989869784,-1.65152801091789
0.050081715475633594,1.499030298405166,-1.6569319942889456
0.05069246810338522,1.4996947132455536,-1.662377916987376
0.051303220731136856,1.5003299698515016,-1.6678593251209137
0.05191397335888848,1.5009368826120326,-1.6733692569105685
0.05252472598664011,1.5015162551672654,-1.6789002883796853
0.053135478614391746,1.5020688814523093,-1.6844445789193188
0.05374623124214337,1.5025955465903325,-1.689993916641594
0.054356983869895,1.5030970276450932,-1.6955397634323877
0.05496773649764663,1.5035740942427782,-1.7010732996132152
0.05557848912539826,1.504027509072608,-1.7065854681211812
0.056189241753149884,1.5044580282752746,-1.7120670181172999
0.05679999438090152,1.5048664017278972,-1.7175085479329208
0.057410747008653146,1.5052533732338222,-1.7229005472669683
0.05802149963640477,1.505619680625258,-1.7282334385469853
0.0586322522641564,1.505966055786358,-1.733497617371139
0.059243004891908035,1.5062932246040666,-1.7386834919492906
0.05985375751965967,1.5066019068537069,-1.743781521466339
0.06046451014741129,1.5068928160259571,-1.7487822532932067
0.061075262775162925,1.5071666591015762,-1.7536763589755378
0.06168601540291455,1.5074241362799103,-1.7584546689337315
0.06229676803066618,1.507665940666932,-1.7631082058127212
0.0629075206584178,1.5078927579282657,-1.7676282164245245
0.06351827328616944,1.5081052659123666,-1.7720062022303624
0.06412902591392107,1.5083041342487387,-1.7762339483150746
0.0647397785416727,1.5084900239258152,-1.7803035508104017
0.06535053116942433,1.5086635868528548,-1.7842074427291896
0.06596128379717596,1.5088254654099376,-1.7879384181768443
0.0665720364249276,1.5089762919899143,-1.7914896549117971
0.06718278905267921,1.5091166885358982,-1.7948547352305837
0.06779354168043085,1.5092472660776657,-1.7980276651593552
0.06840429430818247,1.5093686242700968,-1.801002891936135
0.06901504693593409,1.5094813509365679,-1.8037753197747564
0.06962579956368573,1.5095860216199948,-1.8063403239042666
0.07023655219143736,1.5096831991440236,-1.8086937628827058
0.070847304819189,1.5097734331866568,-1.8108319891879263
0.07145805744694061,1.5098572598684394,-1.812751858092281
0.07206881007469225,1.5099352013571108,-1.8144507348316057
0.07267956270244387,1.5100077654905042,-1.815926500083127
0.0732903153301955,1.5100754454192622,-1.8171775537699852
0.07390106795794714,1.5101387192708131,-1.818202817214048
0.07451182058569876,1.5101980498358971,-1.8190017336611493
0.0751225732134504,1.5102538842787736,-1.8195742672072321
0.07573332584120203,1.5103066538721361,-1.8199209001559093
0.07634407846895366,1.510356773757598,-1.8200426288411964
0.07695483109670527,1.5104046427325246,-1.8199409579524082
0.0775655837244569,1.5104506430638533,-1.8196178934002165
0.07817633635220854,1.5104951403294335,-1.8190759337657674
0.07878708897996017,1.510538483287331,-1.8183180603774869
0.07939784160771181,1.5105810037734269,-1.8173477260621096
0.08000859423546343,1.5106230166275512,-1.8161688426190046
0.08061934686321505,1.5106648196483201,-1.8147857670693694
0.08123009949096668,1.510706693576731,-1.813203286733042
0.08184085211871832,1.5107489021085172,-1.8114266031889954
0.08245160474646994,1.5107916919351725,-1.8094613151764336
0.08306235737422157,1.5108352928134854,-1.8073134004959168
0.08367311000197321,1.5108799176633463,-1.80498919697114
0.08428386262972484,1.5109257626935448,-1.8024953825346754
0.08489461525747646,1.5109730075551682,-1.7998389545010334
0.08550536788522808,1.5110218155221924,-1.7970272080936758
0.08611612051297972,1.511072333698766,-1.7940677142923638
0.08672687314073135,1.5111246932526292,-1.7909682970697895
0.08733762576848299,1.5111790096740771,-1.7877370100866365
0.08794837839623461,1.5112353830597762,-1.7843821129163364
0.08855913102398623,1.5112938984207336,-1.7809120468701374
0.08916988365173786,1.5113546260136286,-1.7773354104957688
0.0897806362794895,1.5114176216946833,-1.7736609348221521
0.09039138890724112,1.5114829272951888,-1.7698974584236251
0.09100214153499275,1.5115505710177604,-1.7660539023775887
0.09161289416274439,1.5116205678523378,-1.762139245189522
0.09222364679049602,1.5116929200109104,-1.7581624977588703
0.09283439941824764,1.5117676173798895,-1.7541326784598186
0.09344515204599926,1.5118446379890262,-1.7500587884097092
0.0940559046737509,1.5119239484957065,-1.7459497869981155
0.09466665730150253,1.512005504683441,-1.7418145677474945
0.09527740992925417,1.512089251973317,-1.7376619345765918
0.09588816255700579,1.5121751259471525,-1.7335005785354527
0.09649891518475741,1.512263052881056,-1.7293390550798233
0.09710966781250904,1.512352950288079,-1.7251857619506408
0.09772042044026068,1.5124447274686086,-1.7210489177228194
0.09833117306801231,1.5125382860671472,-1.7169365410845503
0.09894192569576393,1.5126335206340926,-1.7128564309065661
0.09955267832351557,1.5127303191911265,-1.7088161471575813
0.10016343095126719,1.5128285637988133,-1.7048229927195524
0.10077418357901882,1.5129281311250051,-1.7008839961531703
0.10138493620677044,1.5130288930126459,-1.6970058954604885
0.10199568883452208,1.5131307170455786,-1.693195122888379
0.10260644146227371,1.5132334671109668,-1.68945779081257
0.10321719409002535,1.5133370039569571,-1.6857996787382517
0.10382794671777695,1.513441185744229,-1.6822262214491888
0.10443869934552859,1.5135458685900989,-1.6787424983332317
0.10504945197328022,1.5136509071038815,-1.6753532239075324
0.10566020460103186,1.513756154912242,-1.6720627395630812
0.10627095722878349,1.5138614651733078,-1.6688750065430131
0.10688170985653511,1.513966691078358,-1.6657936001648612
0.10749246248428675,1.514071686339953,-1.6628217052930958
0.10810321511203837,1.514176305665415,-1.659962113062689
0.10871396773979,1.514280405214634,-1.6572172188506444
0.10932472036754162,1.5143838430412266,-1.654589021487837
0.10993547299529326,1.5144864795161408,-1.6520791236990662
0.11054622562304489,1.5145881777328567,-1.6496887337546826
0.11115697825079653,1.5146888038934252,-1.6474186683135068
0.11176773087854816,1.5147882276746236,-1.6452693564316614
0.11237848350629977,1.5148863225736202,-1.643240844709277
0.1129892361340514,1.5149829662325724,-1.641332803541794
0.11359998876180304,1.5150780407416962,-1.6395445344404895
0.11421074138955467,1.5151714329204016,-1.6378749783816915
0.11482149401730629,1.515263034576168,-1.636322725142783
0.11543224664505793,1.5153527427409268,-1.6348860235784433
0.11604299927280955,1.51544045988477,-1.6335627927889211
0.11665375190056118,1.515526094106908,-1.6323506341292202
0.1172645045283128,1.5156095593038583,-1.6312468440055257
0.11787525715606444,1.5156907753149347,-1.6302484274040394
0.11848600978381607,1.515769668045161,-1.6293521120945775
0.1190967624115677,1.515846169565831,-1.6285543634506492
0.11970751503931934,1.5159202181929834,-1.6278513998262374
0.12031826766707095,1.5159917585441407,-1.6272392084285028
0.12092902029482258,1.5160607415737093,-1.626713561625048
0.12153977292257422,1.5161271245875287,-1.6262700336241915
0.12215052555032585,1.5161908712370729,-1.6259040174661004
0.12276127817807747,1.5162519514939,-1.625610742263103
0.1233720308058291,1.516310341604975,-1.6253852906278596
0.12398278343358073,1.5163660240295418,-1.625222616228631
0.12459353606133236,1.5164189873582623,-1.6251175614115743
0.125204288689084,1.5164692262153925,-1.6250648748310386
0.1258150413168356,1.516516741144762,-1.6250592290304053
0.12642579394458725,1.5165615384804203,-1.6250952379172334
0.12703654657233887,1.5166036302027592,-1.6251674740777355
0.12764729920009052,1.5166430337810148,-1.6252704858783795
0.12825805182784214,1.516679772003029,-1.6253988143031104
0.12886880445559376,1.5167138727931746,-1.6255470094776274
0.1294795570833454,1.516745369019372,-1.6257096468342136
0.13009030971109703,1.5167742982901147,-1.6258813428725416
0.13070106233884865,1.5168007027424353,-1.6260567704747506
0.13131181496660027,1.5168246288217473,-1.6262306737352097
0.13192256759435192,1.5168461270544786,-1.6263978822681817
0.13253332022210354,1.5168652518144294,-1.626553324959079
0.1331440728498552,1.5168820610837597,-1.626692043127724
0.13375482547760678,1.516896616209507,-1.6268092030745382
0.13436557810535843,1.516908981656522,-1.6269001079837049
0.13497633073311005,1.5169192247576904,-1.6269602091593958
0.1355870833608617,1.5169274154622905,-1.626985116574702
0.13619783598861332,1.516933626083313,-1.626970608714651
0.13680858861636494,1.5169379310445517,-1.6269126416982738
0.13741934124411656,1.516940406628241,-1.6268073576666235
0.13803009387186818,1.5169411307239997,-1.626651092426906
0.13864084649961983,1.5169401825798015,-1.6264403823446474
0.13925159912737145,1.5169376425556722,-1.626171970479269
0.1398623517551231,1.516933591880776,-1.6258428119600616
0.14047310438287472,1.5169281124145344,-1.6254500786024526
0.14108385701062634,1.5169212864123747,-1.6249911627668323
0.141694609638378,1.5169131962966766,-1.6244636804640131
0.1423053622661296,1.5169039244334686,-1.6238654737141307
0.14291611489388123,1.5168935529153575,-1.6231946121673093
0.14352686752163288,1.5168821633511864,-1.6224493939973352
0.1441376201493845,1.516869836662836,-1.6216283460804728
0.14474837277713615,1.5168566528895906,-1.6207302234743977
0.14535912540488774,1.516842691000423,-1.619754008213002
0.14596987803263936,1.516828028714549,-1.618698907435884
0.146580630660391,1.5168127423305386,-1.6175643508712116
0.14719138328814263,1.5167969065642672,-1.616349987693982
0.14780213591589428,1.5167805943959285,-1.615055682781692
0.1484128885436459,1.516763876926328,-1.6136815123914927
0.14902364117139752,1.516746823242613,-1.6122277592840148
0.14963439379914917,1.5167295002935908,-1.6106949073201617
0.1502451464269008,1.5167119727747385,-1.6090836355582525
0.15085589905465244,1.5166943030229796,-1.6073948118798809
0.15146665168240406,1.5166765509212867,-1.60562948617353
0.15207740431015568,1.516658773813115,-1.603788883106377
0.15268815693790733,1.5166410264266714,-1.6018743945143543
0.15329890956565892,1.5166233608089699,-1.5998875714424483
0.15390966219341054,1.5166058262696214,-1.5978301158664832
0.1545204148211622,1.516588469334258,-1.5957038721286503
0.1551311674489138,1.5165713337074809,-1.5935108181196953
0.15574192007666546,1.516554460245197,-1.5912530562400298
0.15635267270441708,1.5165378869361694,-1.5889328041727764
0.1569634253321687,1.5165216488926072,-1.586552385501597
0.15757417795992035,1.5165057783495808,-1.584114220206195
0.15818493058767197,1.5164903046730374,-1.5816208150681434
0.15879568321542362,1.5164752543761677,-1.5790747540192127
0.15940643584317524,1.5164606511438568,-1.5764786884645503
0.16001718847092686,1.5164465158649336,-1.5738353276123995
0.1606279410986785,1.5164328666719233,-1.5711474288408893
0.1612386937264301,1.5164197189879811,-1.568417788133193
0.16184944635418172,1.5164070855806788,-1.5656492306105216
0.16246019898193337,1.516394976622298,-1.56284460119175
0.163070951609685,1.516383399756282,-1.560006755408206
0.16368170423743664,1.5163723601694663,-1.557138550400825
0.16429245686518826,1.5163618606697262,-1.5542428361257834
0.16490320949293988,1.5163519017686442,-1.5513224467937774
0.16551396212069153,1.5163424817688156,-1.5483801925671745
0.16612471474844315,1.5163335968553862,-1.5454188515371767
0.1667354673761948,1.516325241191426,-1.5424411620034424
0.16734622000394642,1.5163174070167305,-1.5394498150753098
0.16795697263169804,1.5163100847496407,-1.5364474476141337
0.16856772525944969,1.516303263091478,-1.5334366355335227
0.16917847788720128,1.5162969291331778,-1.5304198874734583
0.16978923051495293,1.5162910684637279,-1.5273996388626845
0.17039998314270455,1.516285665279992,-1.5243782463818636
0.17101073577045617,1.5162807024975349,-1.5213579828386468
0.17162148839820782,1.5162761618620442,-1.5183410324642466
0.17223224102595944,1.5162720240609688,-1.5153294866393894
0.17284299365371106,1.5162682688349904,-1.5123253400556655
0.1734537462814627,1.5162648750889551,-1.5093304873170603
0.17406449890921433,1.5162618210019145,-1.5063467199845002
0.17467525153696598,1.5162590841359131,-1.5033757240648031
0.1752860041647176,1.516256641543196,-1.5004190779435003
0.17589675679246922,1.5162544698715006,-1.4974782507598299
0.17650750942022086,1.5162525454671338,-1.4945546012200996
0.17711826204797246,1.5162508444755283,-1.4916493768449806
0.1777290146757241,1.5162493429389978,-1.4887637136432335
0.17833976730347573,1.516248016891432,-1.4858986362045963
0.17895051993122735,1.5162468424496758,-1.483055058202209
0.179561272558979,1.5162457959013664,-1.480233783293673
0.18017202518673062,1.5162448537890116,-1.4774355064084088
0.18078277781448224,1.5162439929901161,-1.474660815408852
0.18139353044223389,1.5162431907931768,-1.4719101931095449
0.1820042830699855,1.5162424249693929,-1.4691840196400165
0.18261503569773715,1.5162416738399458,-1.466482575133651
0.18322578832548878,1.5162409163387374,-1.4638060427256214
0.1838365409532404,1.5162401320704741,-1.4611545118410378
0.18444729358099204,1.516239301364031,-1.4585279817542032
0.18505804620874364,1.5162384053210158,-1.4559263653990626
0.18566879883649529,1.5162374258595062,-1.4533494934101363
0.1862795514642469,1.5162363457529222,-1.4507971183730133
0.18689030409199853,1.5162351486640357,-1.4482689192625504
0.18750105671975018,1.5162338191741251,-1.44576450604729
0.1881118093475018,1.5162323428073066,-1.4432834244376753
0.18872256197525342,1.516230706050084,-1.4408251607555977
0.18933331460300507,1.5162288963661879,-1.438389146903445
0.18994406723075669,1.516226902206776,-1.435974765409455
0.19055481985850833,1.5162247130160944,-1.4335813545277438
0.19116557248625995,1.516222319232704,-1.4312082133704547
0.19177632511401158,1.5162197122864023,-1.4288546070503019
0.19238707774176322,1.5162168845909711,-1.4265197718118312
0.19299783036951482,1.5162138295329022,-1.4242029201305157
0.19360858299726647,1.5162105414562634,-1.4219032457587324
0.19421933562501809,1.5162070156438703,-1.4196199286987163
0.1948300882527697,1.5162032482949563,-1.4173521400828077
0.19544084088052135,1.5161992364995194,-1.4150990469427631
0.19605159350827298,1.5161949782095556,-1.4128598168492639
0.19666234613602462,1.5161904722073787,-1.4106336224051352
0.19727309876377624,1.516185718071241,-1.4084196455757105
0.19788385139152787,1.5161807161384737,-1.4062170818408097
0.1984946040192795,1.5161754674663714,-1.4040251441538016
0.19910535664703113,1.5161699737910443,-1.4018430666947455
0.19971610927478275,1.5161642374844688,-1.3996701084045526
0.20032686190253438,1.5161582615099696,-1.3975055562893297
0.200937614530286,1.5161520493763623,-1.395348728484263
0.20154836715803764,1.5161456050909905,-1.3931989770683313
0.20215911978578927,1.5161389331118917,-1.3910556906215112
0.20276987241354089,1.516132038299317,-1.3889182965177502
0.20338062504129253,1.516124925866836,-1.3867862629482235
0.20399137766904415,1.5161176013322508,-1.3846591006701625
0.2046021302967958,1.5161100704685417,-1.3825363644780864
0.20521288292454742,1.5161023392550557,-1.3804176543956148
0.20582363555229904,1.5160944138291543,-1.37830261658601
0.2064343881800507,1.5160863004385223,-1.3761909439831181
0.2070451408078023,1.5160780053943366,-1.3740823766427208
0.2076558934355539,1.5160695350254858,-1.3719767018176703
