frequency,refractiveIndex,absorption
0.0006107526277516292,1.1838684874371628,-0.001341906595420476
0.0012215052555032584,1.1843252148474077,-0.005353760702062058
0.0018322578832548875,1.1850776150908247,-0.011995002438141224
0.002443010511006517,1.1861132248122828,-0.021201308243903542
0.003053763138758146,1.1874159641912447,-0.03288892785860159
0.003664515766509775,1.188967221635385,-0.0469597764591081
0.004275268394261404,1.190746935624079,-0.0633066318433885
0.004886021022013034,1.1927345588199816,-0.08181791662493944
0.005496773649764663,1.194909836892817,-0.10238173689141725
0.006107526277516292,1.1972533795420446,-0.1248890378039186
0.006718278905267922,1.1997470346546777,-0.14923588342316071
0.00732903153301955,1.2023740959073073,-0.17532495972731574
0.00793978416077118,1.2051193814725287,-0.20306644210015087
0.008550536788522809,1.207969220685464,-0.2323783755376655
0.009161289416274438,1.210911380334319,-0.26318670207930045
0.009772042044026067,1.213934955464343,-0.2954250469772193
0.010382794671777697,1.2170302429359254,-0.32903435031591316
0.010993547299529326,1.2201886102891544,-0.3639624082028537
0.011604299927280955,1.2234023680022872,-0.4001633689369045
0.012215052555032585,1.2266646499414744,-0.4375972150016998
0.012825805182784214,1.229969304496108,-0.47622925091328366
0.013436557810535843,1.2333107973593551,-0.516029609205001
0.014047310438287471,1.2366841259422072,-0.5569727814607676
0.0146580630660391,1.2400847448342172,-0.5990371776994979
0.015268815693790731,1.243508501417461,-0.6422047150711476
0.01587956832154236,1.2469515806080251,-0.6864604353698199
0.01649032094929399,1.2504104576757982,-0.7317921500206458
0.017101073577045618,1.2538818581348248,-0.7781901107512229
0.01771182620479725,1.2573627237714828,-0.8256467039784104
0.018322578832548876,1.2608501839695112,-0.8741561669236604
0.018933331460300507,1.2643415315862834,-0.9237143235527864
0.019544084088052135,1.2678342027270508,-0.9743183385744363
0.020154836715803762,1.2713257598500836,-1.0259664878953623
0.020765589343555393,1.2748138777132147,-1.078657944103515
0.02137634197130702,1.2782963317411207,-1.1323925757193605
0.021987094599058652,1.2817709884528454,-1.1871707591170348
0.02259784722681028,1.2852357976411632,-1.242993202164728
0.02320859985456191,1.2886887860402179,-1.2998607787666738
0.023819352482313542,1.2921280522561627,-1.357774373610087
0.02443010511006517,1.2955517627682174,-1.4167347365245282
0.025040857737816797,1.2989581488353728,-1.4767423459538978
0.025651610365568428,1.3023455041675205,-1.5377972811222875
0.026262362993320056,1.3057121832398413,-1.5998991025435656
0.026873115621071687,1.3090566001462232,-1.6630467405839697
0.027483868248823314,1.3123772279018868,-1.72723839183873
0.028094620876574942,1.3156725981176296,-1.7924714231247698
0.028705373504326573,1.3189413009784132,-1.8587422829287763
0.0293161261320782,1.3221819854678758,-1.9260464201782386
0.029926878759829835,1.3253933597879646,-1.9943782102263476
0.030537631387581463,1.3285741919291045,-2.063730887961679
0.03114838401533309,1.3317233103520218,-2.1340964879658
0.03175913664308472,1.3348396047470008,-2.205465791652704
0.03236988927083635,1.3379220268403818,-2.277828281330643
0.03298064189858798,1.3409695912217805,-2.3511721011284696
0.03359139452633961,1.343981376168471,-2.425484024730427
0.034202147154091235,1.346956524446175,-2.500749429859131
0.03481289978184286,1.3498942440678356,-2.5769522794426907
0.0354236524095945,1.3527938089941631,-2.6540751093936845
0.036034405037346125,1.35565455976148,-2.7320990229211026
0.03664515766509775,1.3584759040243302,-2.8110036912832608
0.03725591029284938,1.3612573170017814,-2.890767360879622
0.037866662920601014,1.3639983418176398,-2.971366866567703
0.038477415548352635,1.3666985897264508,-3.052777651074677
0.03908816817610427,1.369357740218073,-3.1349737903619452
0.039698920803855904,1.3719755409950003,-3.2179280247842716
0.040309673431607525,1.3745518078174817,-3.3016117958713638
0.04092042605935916,1.3770864242127672,-3.385995288543189
0.04153117868711079,1.3795793410455224,-3.471047478556678
0.04214193131486242,1.3820305759475913,-3.556736184965975
0.04275268394261404,1.3844402126059927,-3.6430281273640026
0.04336343657036568,1.386808399909058,-3.72988898765915
0.043974189198117304,1.3891353509512097,-3.8172834761289085
0.04458494182586893,1.3914213418978207,-3.9051754014774613
0.04519569445362056,1.3936667107121676,-3.993527744616709
0.045806447081372194,1.3958718557472871,-4.082302735875165
0.04641719970912382,1.3980372342060503,-4.171461935334356
0.04702795233687545,1.4001633604735395,-4.260966315980605
0.047638704964627084,1.4022508043261224,-4.35077634935621
0.048249457592378704,1.4043001890224127,-4.440852093386546
0.04886021022013034,1.4063121892814923,-4.531153282055643
0.049470962847881966,1.408287529154455,-4.621639416600331
0.050081715475633594,1.410226979795478,-4.712269857891534
0.05069246810338522,1.4121313571391119,-4.8030039196701955
0.051303220731136856,1.4140015194907665,-4.893800962306295
0.05191397335888848,1.4158383650374897,-4.98462048675289
0.05252472598664011,1.417642829286523,-5.075422228368525
0.053135478614391746,1.4194158824391323,-5.166166250287408
0.05374623124214337,1.421158526707392,-5.256813036022129
0.054356983869895,1.4228717935817412,-5.3473235809887605
0.05496773649764663,1.424556741057022,-5.437659482655038
0.05557848912539826,1.4262144508249104,-5.527783029016298
0.056189241753149884,1.427846025440464,-5.617657285118316
0.05679999438090152,1.4294525854705753,-5.70724617735042
0.057410747008653146,1.4310352666319117,-5.796514575248307
0.05802149963640477,1.4325952169259888,-5.88542837055332
0.0586322522641564,1.4341335937786603,-5.973954553288228
0.059243004891908035,1.4356515611913938,-6.062061284620667
0.05985375751965967,1.4371502869112995,-6.149717966299823
0.06046451014741129,1.4386309396268624,-6.236895306461861
0.061075262775162925,1.4400946861960466,-6.323565381614242
0.06168601540291455,1.4415426889131988,-6.40970169462153
0.06229676803066618,1.4429761028210049,-6.495279228529381
0.0629075206584178,1.444396073073496,-6.580274496075129
0.06351827328616944,1.4458037323558761,-6.664665584747492
0.06412902591392107,1.4472001983666434,-6.74843219727262
0.0647397785416727,1.4485865713673254,-6.831555687414105
0.06535053116942433,1.4499639318048234,-6.9140190909913395
0.06596128379717596,1.4513333380111637,-6.9958071520307294
0.0665720364249276,1.4526958239851757,-7.076906343980994
0.06718278905267921,1.454052397260408,-7.157304885933515
0.06779354168043085,1.455404036863327,-7.236992753806288
0.06840429430818247,1.4567516913656122,-7.315961686458473
0.06901504693593409,1.4580962770341723,-7.394205186720818
0.06962579956368573,1.4594386760821623,-7.471718517337319
0.07023655219143736,1.46077973502419,-7.548498691828293
0.070847304819189,1.4621202631385894,-7.624544460298241
0.07145805744694061,1.4634610310394114,-7.699856290226224
0.07206881007469225,1.4648027693605692,-7.7744363422888085
0.07267956270244387,1.4661461675544047,-7.848288441280633
0.0732903153301955,1.4674918728065842,-7.921418042210811
0.07390106795794714,1.4688404890691171,-7.993832191667759
0.07451182058569876,1.4701925762130266,-8.065539484558261
0.0751225732134504,1.471548649301904,-8.136550016340998
0.07573332584120203,1.472909177987406,-8.20687533088984
0.07634407846895366,1.474274586027482,-8.276528364133044
0.07695483109670527,1.475645250927828,-8.345523383632692
0.0775655837244569,1.4770215037068517,-8.41387592427806
0.07817633635220854,1.4784036287841098,-8.481602720284268
0.07878708897996017,1.479791863991952,-8.548721633697168
0.07939784160771181,1.4811864007097544,-8.615251579622253
0.08000859423546343,1.4825873841199178,-8.681212448403809
0.08061934686321505,1.4839949135843866,-8.746625024997876
0.08123009949096668,1.4854090431402927,-8.811510905788168
0.08184085211871832,1.4868297821128122,-8.875892413112027
0.08245160474646994,1.4882570958432366,-8.939792507767812
0.08306235737422157,1.4896909065297261,-9.003234699788166
0.08367311000197321,1.4911310941780338,-9.066242957772031
0.08428386262972484,1.4925774976590909,-9.128841617074839
0.08489461525747646,1.4940299158700519,-9.191055287163667
0.08550536788522808,1.4954881089950511,-9.252908758451193
0.08611612051297972,1.4969517998616557,-9.314426908923695
0.08672687314073135,1.4984206753886078,-9.37563461088457
0.08733762576848299,1.4998943881202458,-9.436556638135661
0.08794837839623461,1.5013725578426296,-9.497217573917995
0.08855913102398623,1.5028547732761628,-9.557641719935537
0.08916988365173786,1.5043405938391912,-9.617853006781282
0.0897806362794895,1.505829551476911,-9.67787490608012
0.09039138890724112,1.5073211525495664,-9.737730344662706
0.09100214153499275,1.5088148797738168,-9.797441621072517
0.09161289416274439,1.5103101942109092,-9.857030324703265
0.09222364679049602,1.5118065372951717,-9.916517257854828
0.09283439941824764,1.5133033328961887,-9.975922360982658
0.09344515204599926,1.5147999894079007,-10.035264641406535
0.0940559046737509,1.516295901857807,-10.094562105730427
0.09466665730150253,1.5177904540294542,-10.15383169620689
0.09527740992925417,1.5192830205912025,-10.213089231272543
0.09588816255700579,1.5207729692245098,-10.272349350453254
0.09649891518475741,1.522259662744768,-10.331625463830793
0.09710966781250904,1.523742461207974,-10.390929706236106
0.09772042044026068,1.5252207239965045,-10.450272896320302
0.09833117306801231,1.526693811877431,-10.509664500631192
0.09894192569576393,1.5281610890269302,-10.569112602806513
0.09955267832351557,1.5296219250145824,-10.628623877968863
0.10016343095126719,1.5310756967414505,-10.688203572392544
0.10077418357901882,1.5325217903261605,-10.74785548848605
0.10138493620677044,1.5339596029333897,-10.807581975114594
0.10199568883452208,1.535388544539464,-10.867383923267033
0.10260644146227371,1.5368080396300412,-10.927260767046343
0.10321719409002535,1.5382175288251765,-10.987210489947861
0.10382794671777695,1.5396164704274005,-11.047229636361863
0.10443869934552859,1.5410043418887416,-11.107313328223318
0.10504945197328022,1.5423806411930168,-11.16745528670712
0.10566020460103186,1.543744888150058,-11.227647858852546
0.10627095722878349,1.5450966255988943,-11.287882048978439
0.10688170985653511,1.5464354205173463,-11.348147554735327
0.10749246248428675,1.547760865035762,-11.408432807625843
0.10810321511203837,1.549072577353141,-11.468725017804989
0.10871396773979,1.5503702025541672,-11.529010222961075
0.10932472036754162,1.5516534133260893,-11.589273341064336
0.10993547299529326,1.552921910574818,-11.649498226754265
0.11054622562304489,1.5541754239398724,-11.709667731131576
0.11115697825079653,1.5554137122082905,-11.76976376470512
0.11176773087854816,1.5566365636279,-11.829767363238508
0.11237848350629977,1.5578437961207325,-11.88965875623266
0.1129892361340514,1.5590352573976927,-11.949417437773464
0.11359998876180304,1.5602108249758897,-12.009022239471292
0.11421074138955467,1.5613704061004254,-12.06845140521006
0.11482149401730629,1.5625139375726431,-12.127682667426926
0.11543224664505793,1.5636413854871847,-12.186693324636668
0.11604299927280955,1.5647527448804313,-12.245460319918687
0.11665375190056118,1.5658480392931802,-12.303960320081798
0.1172645045283128,1.5669273202506324,-12.362169795226063
0.11787525715606444,1.5679906666629424,-12.420065098422963
0.11848600978381607,1.5690381841498382,-12.477622545238182
0.1190967624115677,1.5700700042929596,-12.534818492827258
0.11970751503931934,1.5710862838197,-12.591629418339675
0.12031826766707095,1.57208720372252,-12.64803199637259
0.12092902029482258,1.5730729683178097,-12.704003175222677
0.12153977292257422,1.5740438042484235,-12.759520251694747
0.12215052555032585,1.5749999594341813,-12.814560944231117
0.12276127817807747,1.5759417019746598,-12.869103464136193
0.1233720308058291,1.5768693190085903,-12.923126584682393
0.12398278343358073,1.577783115534323,-12.976609707890455
0.12459353606133236,1.578683413195724,-13.029532928790116
0.125204288689084,1.5795705490379752,-13.081877096978427
0.1258150413168356,1.5804448742376287,-13.133623875300648
0.12642579394458725,1.5813067528113438,-13.184755795497626
0.12703654657233887,1.5821565603076075,-13.23525631066597
0.12764729920009052,1.5829946824857601,-13.285109844398393
0.12825805182784214,1.5838215139865295,-13.334301836476605
0.12886880445559376,1.5846374569982276,-13.382818785006744
0.1294795570833454,1.585442919922691,-13.430648284896023
0.13009030971109703,1.5862383160449354,-13.477779062582323
0.13070106233884865,1.5870240622103806,-13.52420100694344
0.13131181496660027,1.5878005775134523,-13.56990519632008
0.13192256759435192,1.5885682820011842,-13.614883921603118
0.13253332022210354,1.5893275953953443,-13.659130705346545
0.1331440728498552,1.5900789358365284,-13.702640316876753
0.13375482547760678,1.5908227186534574,-13.745408783385832
0.13436557810535843,1.5915593551606426,-13.787433397001458
0.13497633073311005,1.592289251487381,-13.82871271784588
0.1355870833608617,1.5930128074410028,-13.869246573097694
0.13619783598861332,1.5937304154070089,-13.909036052090839
0.13680858861636494,1.5944424592887072,-13.948083497489183
0.13741934124411656,1.5951493134887478,-13.986392492589045
0.13803009387186818,1.595851341934834,-14.023967844811466
0.13864084649961983,1.5965488971516775,-14.060815565456158
0.13925159912737145,1.597242319381211,-14.096942845799223
0.1398623517551231,1.5979319357527992,-14.132358029626532
0.14047310438287472,1.598618059505141,-14.16707058230247
0.14108385701062634,1.5993009892613206,-14.201091056486348
0.141694609638378,1.5999810083583434,-14.234431054612635
0.1423053622661296,1.6006583842323296,-14.267103188265587
0.14291611489388123,1.6013333678603925,-14.299121034580072
0.14352686752163288,1.6020061932600365,-14.330499089816303
0.1441376201493845,1.6026770770467802,-14.361252720256239
0.14474837277713615,1.6033462180505793,-14.391398110580964
0.14535912540488774,1.6040137969913586,-14.420952209895239
0.14596987803263936,1.6046799762139672,-14.449932675569524
0.146580630660391,1.6053448994825563,-14.478357815076425
0.14719138328814263,1.606008691834345,-14.506246526006732
0.14780213591589428,1.606671459492486,-14.533618234451708
0.1484128885436459,1.6073332898376742,-14.560492831945583
0.14902364117139752,1.607994251437941,-14.586890611164577
0.14963439379914917,1.6086543941359064,-14.612832200584629
0.1502451464269008,1.6093137491926877,-14.638338498300188
0.15085589905465244,1.6099723294874249,-14.663430605213513
0.15146665168240406,1.6106301297713113,-14.688129757799148
0.15207740431015568,1.6112871269748137,-14.712457260658859
0.15268815693790733,1.6119432805666976,-14.736434419072785
0.15329890956565892,1.6125985329632653,-14.760082471762288
0.15390966219341054,1.6132528099861185,-14.783422524073583
0.1545204148211622,1.61390602136665,-14.806475481790438
0.1551311674489138,1.6145580612952886,-14.829261985787381
0.15574192007666546,1.6152088090134564,-14.851802347725807
0.15635267270441708,1.6158581294460685,-14.874116486996687
0.1569634253321687,1.6165058738722633,-14.89622386910911
0.15757417795992035,1.6171518806320355,-14.918143445717003
0.15818493058767197,1.6177959758662384,-14.939893596476303
0.15879568321542362,1.6184379742874562,-14.961492072911108
0.15940643584317524,1.619077679979052,-14.98295594447099
0.16001718847092686,1.619714887219723,-15.004301546944728
0.1606279410986785,1.6203493813307857,-15.02554443339434
0.1612386937264301,1.6209809395433488,-15.046699327764198
0.16184944635418172,1.6216093318825342,-15.067780081306422
0.16246019898193337,1.622234322065821,-15.088799631962516
0.163070951609685,1.6228556684126099,-15.109769966821766
0.16368170423743664,1.6234731247620358,-15.130702087775965
0.16429245686518826,1.6240864413961178,-15.151605980470256
0.16490320949293988,1.6246953659652597,-15.172490586646374
0.16551396212069153,1.6252996444132144,-15.19336377995769
0.16612471474844315,1.625899021898575,-15.214232345325431
0.1667354673761948,1.6264932437099369,-15.235101961893742
0.16734622000394642,1.6270820561718922,-15.255977189628652
0.16795697263169804,1.6276652075390987,-15.276861459592398
0.16856772525944969,1.628242448875686,-15.29775706791358
0.16917847788720128,1.6288135349173802,-15.318665173459417
0.16978923051495293,1.6293782249137763,-15.339585799205814
0.17039998314270455,1.6299362834482891,-15.360517837285647
0.17101073577045617,1.6304874812333983,-15.381459057685566
0.17162148839820782,1.6310315958789399,-15.40240612054789
0.17223224102595944,1.6315684126312577,-15.423354592023305
0.17284299365371106,1.6320977250811906,-15.444298963607322
0.1734537462814627,1.6326193358389816,-15.465232674880665
0.17406449890921433,1.6331330571742986,-15.486148139567721
0.17467525153696598,1.6336387116197455,-15.507036774808832
0.1752860041647176,1.6341361325363173,-15.5278890335399
0.17589675679246922,1.6346251646394647,-15.548694439855467
0.17650750942022086,1.6351056644844961,-15.569441627228363
0.17711826204797246,1.635577500910276,-15.590118379448098
0.1777290146757241,1.6360405554402815,-15.610711674128437
0.17833976730347573,1.6364947226402249,-15.631207728634005
0.17895051993122735,1.636939910431627,-15.651592048263886
0.179561272558979,1.6373760403608628,-15.67184947652385
0.18017202518673062,1.6378030478233716,-15.691964247316271
0.18078277781448224,1.6382208822427964,-15.71192003887102
0.18139353044223389,1.6386295072051165,-15.73170002923174
0.1820042830699855,1.6390289005477923,-15.75128695311715
0.18261503569773715,1.6394190544042575,-15.770663159964517
0.18322578832548878,1.6397999752040904,-15.789810672970074
0.1838365409532404,1.6401716836294546,-15.80871124892785
0.18444729358099204,1.6405342145284179,-15.82734643868043
0.18505804620874364,1.6408876167859734,-15.845697647984904
0.18566879883649529,1.6412319531536415,-15.863746198602668
0.1862795514642469,1.6415673000386957,-15.881473389421423
0.18689030409199853,1.641893747254142,-15.898860557419438
0.18750105671975018,1.6422113977306605,-15.915889138285445
0.1881118093475018,1.642520367191895,-15.932540726507314
0.18872256197525342,1.6428207837944524,-15.94879713475149
0.18933331460300507,1.64311278773418,-15.964640452352441
0.18994406723075669,1.643396530820267,-15.980053102741188
0.19055481985850833,1.6436721760188575,-15.995017899644045
0.19116557248625995,1.643939896967883,-16.009518101889313
0.19177632511401158,1.6441998774649136,-16.02353746666311
0.19238707774176322,1.6444523109298625,-16.037060301065534
0.19299783036951482,1.6446973998444154,-16.050071511821184
0.19360858299726647,1.6449353551701258,-16.062556653005707
0.19421933562501809,1.645166395747116,-16.07450197165988
0.1948300882527697,1.6453907476753757,-16.085894451164386
0.19544084088052135,1.6456086436806614,-16.096721852262466
0.19605159350827298,1.6458203224670005,-16.10697275162169
0.19666234613602462,1.6460260280578451,-16.11663657783276
0.19727309876377624,1.6462260091278904,-16.125703644757138
0.19788385139152787,1.646420518327584,-16.134165182136854
0.1984946040192795,1.646609811602356,-16.14201336339239
0.19910535664703113,1.6467941475085575,-16.14924133054394
0.19971610927478275,1.6469737865281113,-16.155843216194402
0.20032686190253438,1.6471489903838155,-16.161814162529357
0.200937614530286,1.647320021357271,-16.167150337289026
0.20154836715803764,1.6474871416112948,-16.171848946684804
0.20215911978578927,1.647650612518716,-16.175908245234087
0.20276987241354089,1.647810693999379,-16.179327542500488
0.20338062504129253,1.6479676438671196,-16.18210720673477
0.20399137766904415,1.64812171718846,-16.184248665417915
0.2046021302967958,1.6482731656547214,-16.185754402718366
0.20521288292454742,1.6484222369691428,-16.186627953885637
0.20582363555229904,1.6485691742506228,-16.186873896605423
0.2064343881800507,1.6487142154555565,-16.186497839357067
0.2070451408078023,1.6488575928192308,-16.18550640681493
0.2076558934355539,1.648999532318159,-16.183907222349585
0.20826664606330555,1.6491402531546475,-16.181708887687368
