frequency,refractiveIndex,absorption
0.0006107526277516292,1.4420453488997986,-0.0003564704328284687
0.0012215052555032584,1.442144163590346,-0.0014262998797457123
0.0018322578832548875,1.4423086835586612,-0.0032107414314186122
0.002443010511006517,1.442538652531211,-0.005711879054835084
0.003053763138758146,1.442833712722866,-0.00893262081028177
0.003664515766509775,1.443193405827986,-0.012876689341857315
0.004275268394261404,1.443617174285144,-0.017548609629243806
0.004886021022013034,1.44410436280858,-0.022953693986343695
0.005496773649764663,1.4446542201780923,-0.029098024291204193
0.006107526277516292,1.4452659012777453,-0.035988431431662804
0.006718278905267922,1.445938469372872,-0.043632471952400144
0.00732903153301955,1.4466708986136805,-0.05203840189162485
0.00793978416077118,1.447462076753022,-0.06121514779987403
0.008550536788522809,1.4483108080651679,-0.07117227493860949
0.009161289416274438,1.4492158164519577,-0.08191995266355218
0.009772042044026067,1.4501757487222025,-0.09346891700599048
0.010382794671777697,1.4511891780300346,-0.10583043047480051
0.010993547299529326,1.4522546074577511,-0.11901623911336634
0.011604299927280955,1.4533704737287825,-0.1330385268570834
0.012215052555032585,1.454535151036375,-0.1479098672509509
0.012825805182784214,1.4557469549740925,-0.16364317259984554
0.013436557810535843,1.4570041465541528,-0.18025164063959467
0.014047310438287471,1.4583049363005152,-0.19774869883117238
0.0146580630660391,1.459647488403579,-0.216147946396623
0.015268815693790731,1.461029924924301,-0.23546309423006337
0.01587956832154236,1.4624503300357243,-0.25570790283341777
0.01649032094929399,1.4639067542907616,-0.27689611844135353
0.017101073577045618,1.4653972189053661,-0.2990414075152503
0.01771182620479725,1.4669197200471122,-0.322157289800263
0.018322578832548876,1.4684722331193802,-0.34625707015374224
0.018933331460300507,1.4700527170321682,-0.3713537693662159
0.019544084088052135,1.4716591184510057,-0.39746005420821795
0.020154836715803762,1.4732893760157315,-0.4245881669479195
0.020765589343555393,1.474941424521521,-0.4527498545944741
0.02137634197130702,1.476613199054935,-0.48195629813079477
0.021987094599058652,1.4783026390779004,-0.5122180420076685
0.02259784722681028,1.4800076924531522,-0.5435449241774263
0.02320859985456191,1.481726319404612,-0.5759460069503767
0.023819352482313542,1.4834564964066572,-0.6094295089612267
0.02443010511006517,1.4851962199963036,-0.6440027385345486
0.025040857737816797,1.486943510502427,-0.6796720287398154
0.025651610365568428,1.4886964156864464,-0.7164426744249927
0.026262362993320056,1.490453014288802,-0.7543188715164043
0.026873115621071687,1.4922114194757614,-0.7933036588677129
0.027483868248823314,1.4939697821811853,-0.8333988629367097
0.028094620876574942,1.4957262943377583,-0.8746050455611047
0.028705373504326573,1.497479191992506,-0.9169214550961363
0.0293161261320782,1.4992267583012686,-0.960345981167295
0.029926878759829835,1.5009673263969687,-1.0048751132800644
0.030537631387581463,1.502699282126558,-1.0505039035159092
0.03114838401533309,1.5044210666516564,-1.097225933529131
0.03175913664308472,1.5061311789079213,-1.145033286044577
0.03236988927083635,1.5078281779184868,-1.193916521038621
0.03298064189858798,1.5095106849567463,-1.2438646567687948
0.03359139452633961,1.5111773855541832,-1.294865155797623
0.034202147154091235,1.5128270313490273,-1.346903916136792
0.03481289978184286,1.514458441771782,-1.3999652676165468
0.0354236524095945,1.5160705055640589,-1.4540319735637524
0.036034405037346125,1.5176621821273524,-1.509085237849458
0.03664515766509775,1.5192325026987938,-1.5651047173440034
0.03725591029284938,1.5207805713513989,-1.622068539794553
0.037866662920601014,1.5223055658165543,-1.6799533271157248
0.038477415548352635,1.5238067381271259,-1.7387342240612207
0.03908816817610427,1.5252834150799015,-1.7983849322196608
0.039698920803855904,1.5267349985166812,-1.858877749255447
0.040309673431607525,1.5281609654237605,-1.9201836132903995
0.04092042605935916,1.5295608678501753,-1.9822721523014564
0.04153117868711079,1.5309343326454685,-2.0451117383857755
0.04214193131486242,1.5322810610185564,-2.1086695467233985
0.04275268394261404,1.5336008279194795,-2.1729116190481608
0.04336343657036568,1.5348934812467259,-2.237802931416222
0.043974189198117304,1.5361589408831218,-2.303307466044438
0.04458494182586893,1.5373971975639822,-2.369388286972256
0.04519569445362056,1.5386083115816591,-2.4360076192868103
0.045806447081372194,1.5397924113312174,-2.503126931632993
0.04641719970912382,1.540949691702352,-2.5707070217208607
0.04702795233687545,1.542080412323354,-2.6387081045274754
0.047638704964627084,1.54318489566312,-2.707089902882802
0.048249457592378704,1.544263524997814,-2.775811740119647
0.04886021022013034,1.5453167422491323,-2.844832634459561
0.049470962847881966,1.546345045701419,-2.9141113948037476
0.050081715475633594,1.5473489876052886,-2.9836067175916803
0.05069246810338522,1.54832917167564,-3.053277284389419
0.051303220731136856,1.5492862504922227,-3.123081859868353
0.05191397335888848,1.5502209228111026,-3.1929793898358225
0.05252472598664011,1.5511339307955327,-3.2629290989816053
0.053135478614391746,1.5520260571749542,-3.332890588007449
0.05374623124214337,1.5528981223407563,-3.4028239298121843
0.054356983869895,1.55375098138774,-3.472689764410173
0.05496773649764663,1.5545855211099746,-3.5424493922695177
0.05557848912539826,1.5554026569599244,-3.612064865763089
0.056189241753149884,1.5562033299795865,-3.6814990784365564
0.05679999438090152,1.5569885037122968,-3.7507158518057007
0.057410747008653146,1.557759161103734,-3.8196800194084664
0.05802149963640477,1.5585163014006425,-3.8883575078471306
0.0586322522641564,1.5592609370554058,-3.9567154145690506
0.059243004891908035,1.5599940906446184,-4.0247220821476875
0.05985375751965967,1.5607167918095273,-4.09234716883794
0.06046451014741129,1.5614300742259444,-4.159561715194423
0.061075262775162925,1.5621349726110796,-4.226338206555121
0.06168601540291455,1.5628325197744242,-4.29265063120675
0.06229676803066618,1.563523743719583,-4.35847453406371
0.0629075206584178,1.564209664803699,-4.4237870657059455
0.06351827328616944,1.5648912929607977,-4.488567026637066
0.06412902591392107,1.5655696249951105,-4.552794906638107
0.0647397785416727,1.5662456419501951,-4.616452919107769
0.06535053116942433,1.566920306559297,-4.679525030295134
0.06596128379717596,1.567594560782193,-4.741996983344819
0.0665720364249276,1.568269323433423,-4.803856317091636
0.06718278905267921,1.5689454879064995,-4.865092379554666
0.06779354168043085,1.5696239199985271,-4.925696336096415
0.06840429430818247,1.5703054558391667,-4.9856611722294115
0.06901504693593409,1.5709908999278235,-5.044981691063857
0.06962579956368573,1.5716810232824883,-5.103654505409523
0.07023655219143736,1.5723765617034489,-5.161678024555556
0.070847304819189,1.5730782141548154,-5.219052435770817
0.07145805744694061,1.5737866412665393,-5.275779680578068
0.07206881007469225,1.574502463959195,-5.331863425875212
0.07267956270244387,1.5752262621937667,-5.387309029986027
0.0732903153301955,1.575958573848148,-5.4421235037424625
0.07390106795794714,1.5766998937219299,-5.4963154667120495
0.07451182058569876,1.5774506726707316,-5.549895098700226
0.0751225732134504,1.5782113168710534,-5.602874086670315
0.07573332584120203,1.5789821872162821,-5.655265567241139
0.07634407846895366,1.5797635988443122,-5.707084064931874
0.07695483109670527,1.5805558207968389,-5.7583454263414176
0.0775655837244569,1.581359075810094,-5.809066750462065
0.07817633635220854,1.5821735402365569,-5.859266315339348
0.07878708897996017,1.582999344096819,-5.908963501303392
0.07939784160771181,1.5838365712604565,-5.958178711010581
0.08000859423546343,1.5846852597544798,-6.006933286544245
0.08061934686321505,1.585545402197609,-6.055249423835803
0.08123009949096668,1.5864169463582987,-6.10315008467694
0.08184085211871832,1.5872997958340915,-6.150658906605347
0.08245160474646994,1.5881938108496394,-6.197800110952321
0.08306235737422157,1.5890988091702847,-6.244598409352514
0.08367311000197321,1.5900145671279031,-6.291078909019505
0.08428386262972484,1.5909408207553344,-6.337267017100135
0.08489461525747646,1.5918772670254226,-6.383188344422532
0.08550536788522808,1.592823565190359,-6.4288686089613964
0.08611612051297972,1.5937793382168286,-6.474333539340564
0.08672687314073135,1.5947441743120638,-6.519608778699649
0.08733762576848299,1.5957176285357026,-6.564719789249971
0.08794837839623461,1.596699224492051,-6.60969175784347
0.08855913102398623,1.597688456097181,-6.654549502876565
0.08916988365173786,1.598684789414973,-6.699317382847405
0.0897806362794895,1.599687664556067,-6.744019206879177
0.09039138890724112,1.600696497633482,-6.788678147517994
0.09100214153499275,1.601710682768524,-6.8333166561023075
0.09161289416274439,1.6027295941403803,-6.877956380995726
0.09222364679049602,1.6037525880727606,-6.922618088964493
0.09283439941824764,1.604779005150833,-6.96732158996511
0.09344515204599926,1.6058081723615716,-7.012085665601915
0.0940559046737509,1.6068394052506565,-7.056928001494478
0.09466665730150253,1.6078720100890178,-7.1018651237842505
0.09527740992925417,1.6089052860420943,-7.146912339991262
0.09588816255700579,1.6099385273349929,-7.192083684416317
0.09649891518475741,1.6109710254066758,-7.237391868267006
0.09710966781250904,1.6120020710464864,-7.282848234666323
0.09772042044026068,1.6130309565064058,-7.328462718684393
0.09833117306801231,1.614056977582538,-7.374243812514543
0.09894192569576393,1.6150794356595222,-7.420198535894898
0.09955267832351557,1.6160976397117457,-7.466332411855603
0.10016343095126719,1.6171109082554334,-7.5126494478520165
0.10077418357901882,1.6181185712459096,-7.559152122323776
0.10138493620677044,1.6191199719145986,-7.605841376697003
0.10199568883452208,1.620114468540609,-7.652716612828482
0.10260644146227371,1.6211014361519773,-7.699775695868099
0.10321719409002535,1.6220802681520332,-7.747014962496439
0.10382794671777695,1.6230503778665994,-7.79442923447447
0.10443869934552859,1.6240112000080829,-7.842011837421694
0.10504945197328022,1.624962192052921,-7.889754624720171
0.10566020460103186,1.625902835529082,-7.937648006425224
0.10627095722878349,1.626832637210795,-7.985680983042919
0.10688170985653511,1.6277511302179832,-8.033841184018556
0.10749246248428675,1.6286578750182503,-8.082114910766178
0.10810321511203837,1.6295524603296845,-8.130487184049235
0.10871396773979,1.6304345039230763,-8.178941795512728
0.10932472036754162,1.6313036533225125,-8.2274613631521
0.10993547299529326,1.632159586403743,-8.27602739048988
0.11054622562304489,1.633002011890005,-8.324620329223212
0.11115697825079653,1.6338306697453966,-8.373219645093545
0.11176773087854816,1.6346453314662392,-8.421803886719868
0.11237848350629977,1.6354458002711867,-8.470350757132188
0.1129892361340514,1.636231911191221,-8.518837187730972
0.11359998876180304,1.6370035310609157,-8.567239414398468
0.11421074138955467,1.637760558412782,-8.615533055476904
0.11482149401730629,1.638502923276654,-8.663693191332216
0.11543224664505793,1.6392305868864954,-8.71169444521521
0.11604299927280955,1.6399435412971775,-8.759511065133285
0.11665375190056118,1.640641808914059,-8.807117006446987
0.1172645045283128,1.641325441938464,-8.854486014904197
0.11787525715606444,1.641994521732294,-8.901591709832166
0.11848600978381607,1.6426491581052831,-8.948407667204147
0.1190967624115677,1.6432894885285472,-8.994907502309866
0.11970751503931934,1.6439156772782213,-9.04106495175736
0.12031826766707095,1.644527914513172,-9.086853954544813
0.12092902029482258,1.6451264152908678,-9.132248731944426
0.12153977292257422,1.6457114185255648,-9.17722386595201
0.12215052555032585,1.6462831858931135,-9.221754376060057
0.12276127817807747,1.6468420006867501,-9.265815794124824
0.1233720308058291,1.6473881666282237,-9.309384237106261
0.12398278343358073,1.6479220066387579,-9.352436477467913
0.12459353606133236,1.6484438615742592,-9.394950011038771
0.125204288689084,1.6489540889292944,-9.436903122146248
0.1258150413168356,1.6494530615142136,-9.478274945841811
0.12642579394458725,1.6499411661099597,-9.519045527054631
0.12703654657233887,1.6504188021048638,-9.559195876516801
0.12764729920009052,1.6508863801178522,-9.598708023319483
0.12825805182784214,1.651344320612303,-9.637565063968983
0.12886880445559376,1.6517930525048077,-9.675751207825053
0.1294795570833454,1.6522330117729513,-9.713251818816966
0.13009030971109703,1.6526646400661764,-9.750053453343252
0.13070106233884865,1.6530883833236465,-9.786143894276044
0.13131181496660027,1.653504690403,-9.821512181000502
0.13192256759435192,1.6539140117236513,-9.856148635436103
0.13253332022210354,1.6543167979283095,-9.89004488399269
0.1331440728498552,1.6547134985661376,-9.92319387543383
0.13375482547760678,1.6551045608009471,-9.95558989462449
0.13436557810535843,1.6554904281475786,-9.987228572158903
0.13497633073311005,1.6558715392395862,-10.01810688986914
0.1355870833608617,1.6562483266311416,-10.048223182232103
0.13619783598861332,1.6566212156359,-10.077577133701524
0.13680858861636494,1.6569906232055085,-10.106169772000362
0.13741934124411656,1.6573569568502027,-10.134003457424521
0.13803009387186818,1.6577206136038187,-10.161081868215867
0.13864084649961983,1.6580819790354087,-10.187409982071756
0.13925159912737145,1.6584414263094491,-10.21299405387395
0.1398623517551231,1.6587993152965248,-10.2378415897227
0.14047310438287472,1.6591559917361818,-10.261961317374187
0.14108385701062634,1.6595117864534825,-10.285363153192536
0.141694609638378,1.6598670146306587,-10.308058165727736
0.1423053622661296,1.6602219751350904,-10.330058536048732
0.14291611489388123,1.6605769499046839,-10.35137751496158
0.14352686752163288,1.6609322033915421,-10.372029377257137
0.1441376201493845,1.6612879820646844,-10.39202937313467
0.14474837277713615,1.6616445139724498,-10.411393676958076
0.14535912540488774,1.6620020083649394,-10.430139333509183
0.14596987803263936,1.6623606553768773,-10.448284201904599
0.146580630660391,1.6627206257709177,-10.465846897356174
0.14719138328814263,1.6630820707414524,-10.482846730951051
0.14780213591589428,1.6634451217786648,-10.4993036476433
0.1484128885436459,1.6638098905925334,-10.515238162644383
0.14902364117139752,1.6641764690962801,-10.53067129641054
0.14963439379914917,1.6645449294486137,-10.545624508426199
0.1502451464269008,1.6649153241539925,-10.560119629985609
0.15085589905465244,1.6652876862199621,-10.574178796179446
0.15146665168240406,1.6656620293704942,-10.587824377293392
0.15207740431015568,1.6660383483140755,-10.601078909830422
0.15268815693790733,1.666416619065237,-10.613965027363447
0.15329890956565892,1.6667967993179793,-10.626505391433984
0.15390966219341054,1.6671788288694807,-10.638722622706688
0.1545204148211622,1.6675626300923563,-10.650639232586261
0.1551311674489138,1.6679481084535481,-10.662277555511897
0.15574192007666546,1.66833515307788,-10.673659682132053
0.15635267270441708,1.668723637354157,-10.6848073935637
0.1569634253321687,1.6691134195815882,-10.695742096938607
0.15757417795992035,1.669504343654233,-10.706484762431778
0.15818493058767197,1.6698962397810244,-10.717055861965306
0.15879568321542362,1.6702889252389075,-10.727475309773267
0.15940643584317524,1.6706822051564918,-10.73776240500772
0.16001718847092686,1.6710758733255509,-10.74793577656275
0.1606279410986785,1.6714697130376919,-10.758013330279004
0.1612386937264301,1.6718634979433749,-10.768012198691839
0.16184944635418172,1.6722569929304847,-10.777948693470698
0.16246019898193337,1.6726499550195935,-10.787838260692794
0.163070951609685,1.673042134273012,-10.797695439082581
0.16368170423743664,1.6734332747147254,-10.80753382133964
0.16429245686518826,1.673823115258288,-10.817366018666474
0.16490320949293988,1.674211390639745,-10.827203628597886
0.16551396212069153,1.674597832352681,-10.837057206220317
0.16612471474844315,1.6749821695824765,-10.846936238861604
0.1667354673761948,1.6753641301369153,-10.856849124315808
0.16734622000394642,1.6757434413702887,-10.866803152659502
0.16795697263169804,1.6761198310982313,-10.876804491700275
0.16856772525944969,1.6764930285005217,-10.886858176089726
0.16917847788720128,1.6768627650092154,-10.896968100115537
0.16978923051495293,1.6772287751794688,-10.907137014182355
0.17039998314270455,1.6775907975405684,-10.917366524970266
0.17101073577045617,1.677948575424727,-10.927657099254397
0.17162148839820782,1.6783018577713102,-10.93800807135229
0.17223224102595944,1.6786503999042675,-10.948417654157417
0.17284299365371106,1.6789939642806606,-10.958882953701075
0.1734537462814627,1.679332321208268,-10.96939998717829
0.17406449890921433,1.679665249530416,-10.979963704357246
0.17467525153696598,1.6799925372762485,-10.990568012286259
0.1752860041647176,1.6803139822748647,-11.001205803194463
0.17589675679246922,1.6806293927318035,-11.011868985482115
0.17650750942022086,1.6809385877665473,-11.022548517676949
0.17711826204797246,1.681241397909858,-11.033234445231491
0.1777290146757241,1.6815376655598722,-11.043915940023208
0.17833976730347573,1.6818272453960665,-11.054581342413448
0.17895051993122735,1.6821100047503157,-11.065218205714578
0.179561272558979,1.6823858239344476,-11.075813342903817
0.18017202518673062,1.6826545965238324,-11.086352875422993
0.18078277781448224,1.6829162295966622,-11.096822283890624
0.18139353044223389,1.6831706439288043,-11.107206460553765
0.1820042830699855,1.6834177741441312,-11.117489763299565
0.18261503569773715,1.6836575688205244,-11.127656071042871
0.18322578832548878,1.6838899905517202,-11.137688840308298
0.1838365409532404,1.6841150159654603,-11.147571162814328
0.18444729358099204,1.6843326356984338,-11.157285823873726
0.18505804620874364,1.684542854328654,-11.166815361419797
0.18566879883649529,1.684745690266071,-11.176142125467402
0.1862795514642469,1.6849411756022774,-11.185248337821006
0.18689030409199853,1.6851293559203502,-11.194116151838701
0.18750105671975018,1.6853102900658985,-11.202727712067922
0.1881118093475018,1.6854840498805645,-11.211065213566636
0.18872256197525342,1.685650719899276,-11.2191109607283
0.18933331460300507,1.6858103970126448,-11.226847425432252
0.18994406723075669,1.685963190096007,-11.234257304345006
0.19055481985850833,1.6861092196066643,-11.241323575201701
0.19116557248625995,1.6862486171509448,-11.248029551903148
0.19177632511401158,1.6863815250228091,-11.254358938265774
0.19238707774176322,1.6865080957157397,-11.260295880272384
0.19299783036951482,1.6866284914097125,-11.265825016674198
0.19360858299726647,1.6867428834351348,-11.270931527801048
0.19421933562501809,1.6868514517156163,-11.275601182445088
0.1948300882527697,1.6869543841915124,-11.279820382688603
0.19544084088052135,1.68705187622617,-11.283576206557166
0.19605159350827298,1.6871441299968966,-11.286856448380252
0.19666234613602462,1.68723135387258,-11.289649656756884
0.19727309876377624,1.687313761780003,-11.291945170027118
0.19788385139152787,1.6873915725608102,-11.293733149160465
0.1984946040192795,1.6874650093211752,-11.295004607976562
0.19910535664703113,1.687534298776092,-11.295751440630468
0.19971610927478275,1.687599670590328,-11.295966446292763
0.20032686190253438,1.6876613567179382,-11.295643350971824
0.200937614530286,1.6877195907423255,-11.294776826430274
0.20154836715803764,1.6877746072187114,-11.29336250615552
0.20215911978578927,1.6878266410209155,-11.291396998356756
0.20276987241354089,1.687875926694262,-11.288877895967513
0.20338062504129253,1.687922697816427,-11.285803783638274
0.20399137766904415,1.6879671863679608,-11.282174241718943
0.2046021302967958,1.6880096221142025,-11.277989847234428
0.20521288292454742,1.6880502320002073,-11.27325217186836
0.20582363555229904,1.6880892395603346,-11.26796377697307
0.2064343881800507,1.6881268643439677,-11.2621282056418
0.2070451408078023,1.6881633213588803,-11.255749971877803
0.2076558934355539,1.688198820533655,-11.248834546907277
0.20826664606330555,1.688233566200473,-11.241388342692241
0.20887739869105718,1.6882677565995592,-11.233418692704742
