frequency,refractiveIndex,absorption
0.0006107526277516292,0.8959591785396046,-0.11507833131898206
0.0012215052555032584,0.8988622879689863,-0.23009674747081754
0.0018322578832548875,0.9017781304518084,-0.34504321737137505
0.002443010511006517,0.9047075738074195,-0.45990618210897555
0.003053763138758146,0.9076514605976881,-0.5746746234613659
0.003664515766509775,0.9106106053629789,-0.68933813073334
0.004275268394261404,0.9135857918873215,-0.8038869657092849
0.004886021022013034,0.9165777704938616,-0.9183121255101182
0.005496773649764663,0.9195872553723824,-1.0326054031377763
0.006107526277516292,0.9226149219412801,-1.14675944548318
0.006718278905267922,0.9256614042472685,-1.260767808565235
0.00732903153301955,0.9287272924068973,-1.374625009759664
0.00793978416077118,0.9318131300950332,-1.4883265767671718
0.008550536788522809,0.9349194120863669,-1.6018690930614075
0.009161289416274438,0.9380465818572321,-1.7152502395484284
0.009772042044026067,0.9411950292560648,-1.8284688321615234
0.010382794671777697,0.9443650882520034,-1.941524855108533
0.010993547299529326,0.9475570347723493,-2.054419489484206
0.011604299927280955,0.950771084640607,-2.1671551369572657
0.012215052555032585,0.9540073916280961,-2.279735438241926
0.012825805182784214,0.9572660456329697,-2.392165286067176
0.013436557810535843,0.9605470710015439,-2.504450832363585
0.014047310438287471,0.9638504250075504,-2.6165994893989324
0.0146580630660391,0.9671759965056322,-2.728619924609039
0.015268815693790731,0.9705236047758323,-2.8405220488908998
0.01587956832154236,0.973892998576103,-2.952316998150598
0.01649032094929399,0.9772838554198913,-3.0640171079291783
0.017101073577045618,0.9806957810955756,-3.1756358809664693
0.01771182620479725,0.9841283094440793,-3.2871879476035417
0.018322578832548876,0.9875809024100617,-3.3986890189726324
0.018933331460300507,0.9910529503810777,-3.5101558329740596
0.019544084088052135,0.9945437728275517,-3.6216060930966107
0.020154836715803762,0.9980526192546696,-3.733058400198497
0.020765589343555393,1.0015786704752738,-3.8445321774287216
0.02137634197130702,1.0051210402104032,-3.956047588535597
0.021987094599058652,1.0086787770215413,-4.067625449875566
0.02259784722681028,1.0122508665757548,-4.179287136504337
0.02320859985456191,1.015836234241838,-4.291054482797798
0.023819352482313542,1.0194337480123614,-4.402949678116585
0.02443010511006517,1.0230422217432478,-4.514995158087852
0.025040857737816797,1.0266604186990782,-4.627213492137181
0.025651610365568428,1.0302870553891077,-4.7396272679521845
0.026262362993320056,1.033920805675635,-4.852258973606406
0.026873115621071687,1.0375603051333282,-4.96513087810722
0.027483868248823314,1.0412041556352487,-5.078264911160173
0.028094620876574942,1.0448509301386157,-5.191682542962049
0.028705373504326573,1.0484991776411645,-5.305404664842105
0.0293161261320782,1.0521474282769263,-5.4194514715728594
0.029926878759829835,1.0557941985188106,-5.533842346158536
0.030537631387581463,1.0594379964541796,-5.648595747891509
0.03114838401533309,1.063077327099006,-5.763729104435253
0.03175913664308472,1.066710697716015,-5.879258708654281
0.03236988927083635,1.0703366231023472,-5.995199620866383
0.03298064189858798,1.0739536308130873,-6.111565577137019
0.03359139452633961,1.077560266287974,-6.228368904177845
0.034202147154091235,1.0811550978501419,-6.345620441345806
0.03481289978184286,1.084736721547487,-6.46332947017238
0.0354236524095945,1.0883037658094068,-6.581503651780755
0.036034405037346125,1.0918548958939192,-6.7001489724785275
0.03664515766509775,1.0953888181028009,-6.819269697739908
0.03725591029284938,1.0989042837450018,-6.9388683347215565
0.037866662920601014,1.1024000928313624,-7.058945603386787
0.038477415548352635,1.105875097486531,-7.179500416246105
0.03908816817610427,1.1093282050667426,-7.300529866659049
0.039698920803855904,1.1127583809749109,-7.422029225583827
0.040309673431607525,1.1161646511671888,-7.5439919466066545
0.04092042605935916,1.119546104347688,-7.66640967903245
0.04153117868711079,1.1229018938505175,-7.7892722887752175
0.04214193131486242,1.1262312392105434,-7.912567886746431
0.04275268394261404,1.1295334274263693,-8.03628286440582
0.04336343657036568,1.1328078139209259,-8.160401936110219
0.043974189198117304,1.1360538232067665,-8.284908187871647
0.04458494182586893,1.1392709492646473,-8.409783132117441
0.04519569445362056,1.1424587556452612,-8.53500676803002
0.045806447081372194,1.1456168753051694,-8.660557647032332
0.04641719970912382,1.148745010188739,-8.786412942981055
0.04702795233687545,1.1518429305688482,-8.91254852662263
0.047638704964627084,1.1549104741594844,-9.038939043870663
0.048249457592378704,1.1579475450139456,-9.165557997463708
0.04886021022013034,1.1609541122225304,-9.292377831568935
0.049470962847881966,1.1639302084238332,-9.419370018903424
0.050081715475633594,1.1668759281437266,-9.54650514995587
0.05069246810338522,1.169791425976134,-9.673753023900389
0.051303220731136856,1.1726769146194838,-9.801082740807578
0.05191397335888848,1.1755326627825262,-9.928462794771296
0.05252472598664011,1.1783589929729323,-10.055861167582842
0.053135478614391746,1.181156279181727,-10.183245422599649
0.05374623124214337,1.1839249444761875,-10.310582798471987
0.054356983869895,1.1866654585134935,-10.437840302404002
0.05496773649764663,1.1893783349868665,-10.564984802645043
0.05557848912539826,1.1920641290155254,-10.69198311991977
0.056189241753149884,1.194723434489252,-10.81880211752443
0.05679999438090152,1.1973568813778908,-10.945408789830067
0.057410747008653146,1.1999651330155314,-11.071770348951546
0.05802149963640477,1.2025488833687403,-11.197854309354836
0.0586322522641564,1.2051088542975246,-11.323628570190781
0.059243004891908035,1.2076457928173667,-11.449061495159444
0.05985375751965967,1.2101604683700924,-11.574121989721556
0.06046451014741129,1.2126536701108468,-11.69877957549018
0.061075262775162925,1.2151262042180542,-11.823004461646104
0.06168601540291455,1.217578891232668,-11.946767613236727
0.06229676803066618,1.2200125634326917,-12.07004081622909
0.0629075206584178,1.2224280622484536,-12.192796739199803
0.06351827328616944,1.2248262357237427,-12.315008991556823
0.06412902591392107,1.2272079360275012,-12.436652178199862
0.0647397785416727,1.2295740170204434,-12.557701950534756
0.06535053116942433,1.2319253318805783,-12.678135053769795
0.06596128379717596,1.2342627307913003,-12.797929370430404
0.0665720364249276,1.2365870586954086,-12.917063960038423
0.06718278905267921,1.2388991531181204,-13.035519094910628
0.06779354168043085,1.2411998420618617,-13.15327629204047
0.06840429430818247,1.243489941975376,-13.270318341035548
0.06901504693593409,1.2457702557994563,-13.386629328089855
0.06962579956368573,1.2480415710913968,-13.502194655978592
0.07023655219143736,1.250304658230001,-13.617001060071885
0.070847304819189,1.2525602687029163,-13.731036620367867
0.07145805744694061,1.2548091334777607,-13.844290769556459
0.07206881007469225,1.2570519614584308,-13.956754297129761
0.07267956270244387,1.2592894380278234,-14.06841934956262
0.0732903153301955,1.2615222236780455,-14.17927942659466
0.07390106795794714,1.2637509527290822,-14.289329373650407
0.07451182058569876,1.265976232136776,-14.398565370443269
0.0751225732134504,1.2681986403908339,-14.506984915814265
0.07573332584120203,1.2704187265035163,-14.614586808865672
0.07634407846895366,1.2726370090895376,-14.721371126454256
0.07695483109670527,1.2748539755375934,-14.827339197120061
0.0775655837244569,1.27707008127387,-14.932493571530959
0.07817633635220854,1.2792857491177605,-15.036837989532765
0.07878708897996017,1.2815013687299321,-15.140377343902966
0.07939784160771181,1.2837172961527719,-15.243117640913196
0.08000859423546343,1.285933853443133,-15.345065957815061
0.08061934686321505,1.288151328397201,-15.44623039737152
0.08123009949096668,1.2903699743671773,-15.546620039565008
0.08184085211871832,1.2925900101693064,-15.646244890622924
0.08245160474646994,1.2948116200827324,-15.745115829508244
0.08306235737422157,1.2970349539384094,-15.843244552032976
0.08367311000197321,1.299260127297243,-15.940643512760376
0.08428386262972484,1.301487221716389,-16.037325864870798
0.08489461525747646,1.3037162851025583,-16.133305398172645
0.08550536788522808,1.305947332150879,-16.22859647545128
0.08611612051297972,1.3081803448678042,-16.32321396735273
0.08672687314073135,1.3104152731762686,-16.417173186008238
0.08733762576848299,1.312652035601124,-16.510489817613788
0.08794837839623461,1.3148905200326744,-16.603179854181622
0.08855913102398623,1.317130584565941,-16.69525952468918
0.08916988365173786,1.3193720584130149,-16.786745225855302
0.0897806362794895,1.321614742885689,-16.877653452775778
0.09039138890724112,1.3238584124453212,-16.968000729656737
0.09100214153499275,1.3261028158166694,-17.05780354088316
0.09161289416274439,1.328347677162203,-17.147078262663754
0.09222364679049602,1.3305926973132103,-17.23584109549349
0.09283439941824764,1.3328375550538434,-17.324107997670623
0.09344515204599926,1.3350819084539611,-17.411894620109944
0.0940559046737509,1.3373253962465415,-17.499216242684188
0.09466665730150253,1.3395676392452354,-17.586087712324453
0.09527740992925417,1.341808241797439,-17.672523383105236
0.09588816255700579,1.3440467932681768,-17.75853705853287
0.09649891518475741,1.3462828695499365,-17.84414193624627
0.09710966781250904,1.3485160345934994,-17.929350555333816
0.09772042044026068,1.3507458419547287,-18.014174746456817
0.09833117306801231,1.352971836352221,-18.098625584960438
0.09894192569576393,1.3551935552306502,-18.182713347142784
0.09955267832351557,1.3574105303247213,-18.26644746983423
0.10016343095126719,1.3596222892184928,-18.349836513433775
0.10077418357901882,1.3618283568950393,-18.43288812852584
0.10138493620677044,1.3640282572713232,-18.51560902619298
0.10199568883452208,1.3662215147133532,-18.598004952119446
0.10260644146227371,1.3684076555267146,-18.680080664566052
0.10321719409002535,1.37058620941772,-18.761839916281154
0.10382794671777695,1.3727567109206036,-18.843285440392822
0.10443869934552859,1.3749187007862944,-18.924418940313593
0.10504945197328022,1.3770717273285304,-19.005241083668324
0.10566020460103186,1.3792153477232871,-19.085751500242623
0.10627095722878349,1.3813491292576827,-19.165948783928588
0.10688170985653511,1.3834726505248174,-19.245830498629996
0.10749246248428675,1.385585502561206,-19.32539318807265
0.10810321511203837,1.38768728992376,-19.40463238944913
0.10871396773979,1.389777631703561,-19.48354265081056
0.10932472036754162,1.391856162473928,-19.56211755210696
0.10993547299529326,1.3939225331706049,-19.640349729759162
0.11054622562304489,1.3959764119021678,-19.718230904634193
0.11115697825079653,1.3980174846890605,-19.795751913285507
0.11176773087854816,1.4000454561300089,-19.872902742301743
0.11237848350629977,1.402060049994808,-19.94967256560413
0.1129892361340514,1.4040610097427997,-20.026049784518342
0.11359998876180304,1.4060480989667141,-20.102022070437737
0.11421074138955467,1.4080211017617241,-20.177576409890698
0.11482149401730629,1.4099798230199803,-20.25269915181323
0.11543224664505793,1.4119240886510496,-20.327376056826758
0.11604299927280955,1.4138537457290665,-20.401592348311976
0.11665375190056118,1.4157686625675434,-20.47533276507073
0.1172645045283128,1.417668728723151,-20.548581615359858
0.11787525715606444,1.4195538549299245,-20.621322832083727
0.11848600978381607,1.421423972965603,-20.69354002892949
0.1190967624115677,1.4232790354520608,-20.76521655722729
0.11970751503931934,1.4251190155918794,-20.836335563324763
0.12031826766707095,1.4269439068434027,-20.906880046258344
0.12092902029482258,1.4287537225367,-20.976832915515246
0.12153977292257422,1.4305484954330236,-21.046177048677638
0.12215052555032585,1.4323282772305428,-21.114895348746266
0.12276127817807747,1.4340931380191286,-21.182970800948283
0.1233720308058291,1.43584316568722,-21.250386528834273
0.12398278343358073,1.437578465283737,-21.31712584948106
0.12459353606133236,1.4392991583381898,-21.383172327621004
0.125204288689084,1.441005382142164,-21.448509828522862
0.1258150413168356,1.442697288995343,-21.51312256946224
0.12642579394458725,1.4443750454193645,-21.576995169624848
0.12703654657233887,1.4460388313427437,-21.64011269829125
0.12764729920009052,1.4476888392601324,-21.70246072116585
0.12825805182784214,1.4493252733691913,-21.764025344716522
0.12886880445559376,1.450948348688298,-21.82479325840384
0.1294795570833454,1.4525582901583354,-21.88475177468501
0.13009030971109703,1.4541553317317208,-21.94388886668891
0.13070106233884865,1.4557397154518215,-22.002193203466835
0.13131181496660027,1.4573116905258445,-22.059654182732647
0.13192256759435192,1.458871512394215,-22.11626196101685
0.13253332022210354,1.4604194417994028,-22.172007481165075
0.1331440728498552,1.4619557438570565,-22.22688249712605
0.13375482547760678,1.4634806871322925,-22.280879595976447
0.13436557810535843,1.4649945427237843,-22.33399221714623
0.13497633073311005,1.4664975833583231,-22.386214668810624
0.1355870833608617,1.4679900824983645,-22.437542141429272
0.13619783598861332,1.4694723134649852,-22.48797071841738
0.13680858861636494,1.470944548578578,-22.537497383946008
0.13741934124411656,1.4724070583195212,-22.586120027872358
0.13803009387186818,1.473860110510925,-22.63383744781681
0.13864084649961983,1.4753039695254753,-22.68064934840167
0.13925159912737145,1.4767388955182712,-22.7265563376834
0.1398623517551231,1.478165143687437,-22.77155992081266
0.14047310438287472,1.4795829635642064,-22.815662490965032
0.14108385701062634,1.4809925983340104,-22.858867317595035
0.141694609638378,1.4823942841900437,-22.901178532068048
0.1423053622661296,1.483788249720625,-22.942601110738597
0.14291611489388123,1.4851747153315904,-22.98314085554234
0.14352686752163288,1.486553892704796,-23.022804372183213
0.1441376201493845,1.4879259842937416,-23.061599045997387
0.14474837277713615,1.4892911828571889,-23.09953301558461
0.14535912540488774,1.4906496710315114,-23.136615144303224
0.14596987803263936,1.492001620942442,-23.172854989730208
0.146580630660391,1.493347193856747,-23.208262771190945
0.14719138328814263,1.4946865398742226,-23.2428493354735
0.14780213591589428,1.4960197976603529,-23.276626120839403
0.1484128885436459,1.4973470942197749,-23.309605119455206
0.14902364117139752,1.4986685447106747,-23.341798838367303
0.14963439379914917,1.4999842523000473,-23.37322025914853
0.1502451464269008,1.5012943080597025,-23.403882796349002
0.15085589905465244,1.502598790902745,-23.433800254885867
0.15146665168240406,1.5038977675601988,-23.46298678650852
0.15207740431015568,1.5051912925972786,-23.49145684548222
0.15268815693790733,1.5064794084687598,-23.519225143627835
0.15329890956565892,1.5077621456127788,-23.54630660486559
0.15390966219341054,1.5090395225822761,-23.572716319404456
0.1545204148211622,1.510311546213229,-23.598469497725056
0.1551311674489138,1.511578211828684,-23.62358142450079
0.15574192007666546,1.5128395034775588,-23.648067412603666
0.15635267270441708,1.5140953942070468,-23.671942757340542
0.1569634253321687,1.5153458463673817,-23.695222691062682
0.15757417795992035,1.516590811947655,-23.717922338295416
0.15818493058767197,1.5178302329412794,-23.740056671524613
0.15879568321542362,1.5190640417396255,-23.761640467782293
0.15940643584317524,1.5202921615522726,-23.78268826616639
0.16001718847092686,1.5215145068522733,-23.803214326427057
0.1606279410986785,1.5227309838447511,-23.823232588750212
0.1612386937264301,1.5239414909570812,-23.842756634862308
0.16184944635418172,1.5251459193489005,-23.861799650576394
0.16246019898193337,1.5263441534400664,-23.88037438989862
0.163070951609685,1.5275360714547546,-23.898493140799108
0.16368170423743664,1.5287215459797263,-23.916167692758247
0.16429245686518826,1.5299004445348783,-23.933409306181797
0.16490320949293988,1.5310726301540813,-23.95022868377971
0.16551396212069153,1.5322379619743594,-23.966635943991516
0.16612471474844315,1.533396295831426,-23.98264059653612
0.1667354673761948,1.5345474848595708,-23.99825152015828
0.16734622000394642,1.5356913800939496,-24.01347694263162
0.16795697263169804,1.5368278310732784,-24.028324423074817
0.16856772525944969,1.537956686440999,-24.042800836626864
0.16917847788720128,1.5390777945429848,-24.056912361518865
0.16978923051495293,1.5401910040198896,-24.07066446857375
0.17039998314270455,1.5412961643922616,-24.084061913155274
0.17101073577045617,1.542393126636649,-24.097108729576526
0.17162148839820782,1.54348174375088,-24.109808227976945
0.17223224102595944,1.5445618713068363,-24.12216299365905
0.17284299365371106,1.545633367989052,-24.134174888875965
0.1734537462814627,1.546696096117565,-24.145845057045708
0.17406449890921433,1.5477499221534896,-24.15717392936547
0.17467525153696598,1.5487947171858751,-24.168161233787373
0.1752860041647176,1.5498303573984946,-24.178806006309934
0.17589675679246922,1.5508567245152787,-24.18910660453425
0.17650750942022086,1.551873706223207,-24.19906072342122
0.17711826204797246,1.5528811965715505,-24.208665413187074
0.1777290146757241,1.5538790963464693,-24.21791709925823
0.17833976730347573,1.5548673134200455,-24.22681160420636
0.17895051993122735,1.555845763072931,-24.235344171579285
0.179561272558979,1.5568143682899034,-24.24350949152962
0.18017202518673062,1.5577730600277184,-24.251301728147816
0.18078277781448224,1.5587217774547157,-24.258714548394277
0.18139353044223389,1.5596604681618056,-24.265741152522963
0.1820042830699855,1.5605890883444793,-24.272374305885144
0.18261503569773715,1.5615076029556558,-24.278606371998002
0.18322578832548878,1.562415985829248,-24.28442934675903
0.1838365409532404,1.5633142197744125,-24.289834893685114
0.18444729358099204,1.5642022966405886,-24.294814380052443
0.18505804620874364,1.5650802173534781,-24.299358913812316
0.18566879883649529,1.5659479919222439,-24.3034593811548
0.1862795514642469,1.5668056394182683,-24.307106484594637
0.18689030409199853,1.567653187925943,-24.310290781448092
0.18750105671975018,1.5684906744659728,-24.313002722575696
0.1881118093475018,1.569318144891834,-24.31523269126082
0.18872256197525342,1.5701356537600515,-24.316971042097748
0.18933331460300507,1.5709432641750507,-24.3182081397643
0.18994406723075669,1.5717410476094078,-24.318934397554216
0.19055481985850833,1.572529083700405,-24.319140315545305
0.19116557248625995,1.5733074600237886,-24.318816518289886
0.19177632511401158,1.5740762718458132,-24.31795379190104
0.19238707774176322,1.5748356218545472,-24.316543120431167
0.19299783036951482,1.5755856198716038,-24.314575721424347
0.19360858299726647,1.5763263825454192,-24.312043080540715
0.19421933562501809,1.5770580330272759,-24.308936985147152
0.1948300882527697,1.5777807006312812,-24.305249556778087
0.19544084088052135,1.578494520479561,-24.3009732823715
0.19605159350827298,1.579199633133949,-24.29610104419066
0.19666234613602462,1.5798961842154593,-24.29062614834703
0.19727309876377624,1.5805843240128719,-24.28454235184685
0.19788385139152787,1.581264207081732,-24.277843888086235
0.1984946040192795,1.5819359918351474,-24.27052549072522
0.19910535664703113,1.5825998401276669,-24.262582415881923
0.19971610927478275,1.5832559168336349,-24.25401046258334
0.20032686190253438,1.58390438942131,-24.244805991429356
0.200937614530286,1.5845454275241366,-24.23496594141612
0.20154836715803764,1.5851792025104265,-24.22448784488717
0.20215911978578927,1.5858058870528118,-24.213369840571254
0.20276987241354089,1.5864256546987208,-24.201610684687015
0.20338062504129253,1.5870386794431661,-24.18920976008567
0.20399137766904415,1.587645135305072,-24.17616708342208
0.2046021302967958,1.5882451959083757,-24.16248331034116
0.20521288292454742,1.5888390340690688,-24.148159738678952
0.20582363555229904,1.5894268213893454,-24.133198309678463
0.2064343881800507,1.5900087278599826,-24.117601607230373
0.2070451408078023,1.590584921471999,-24.10137285515368
0.2076558934355539,1.5911555678386815,-24.084515912533682
0.20826664606330555,1.5917208298289298,-24.0670352671462
0.20887739869105718,1.5922808672129016,-24.0489360269978
