frequency,refractiveIndex,absorption
0.0006107526277516292,2.666198278441469,0.003679602514544669
0.0012215052555032584,2.665590143553649,0.0147058905821485
0.0018322578832548875,2.6645791737861613,0.03304142272137872
0.002443010511006517,2.663169222074496,0.058624183886330374
0.003053763138758146,2.661365623931393,0.0913681582921811
0.003664515766509775,2.659175140384758,0.13116411506193487
0.004275268394261404,2.656605886740709,0.177880591089469
0.004886021022013034,2.6536672486599775,0.23136505201729876
0.005496773649764663,2.650369787253962,0.2914452093793586
0.006107526277516292,2.64672513506702,0.3579304698290434
0.006718278905267922,2.6427458849116303,0.4306134909957888
0.00732903153301955,2.6384454735628355,0.5092718178888546
0.00793978416077118,2.6338380623012636,0.5936695738625761
0.008550536788522809,2.6289384162245724,0.6835591809123984
0.009161289416274438,2.623761784132667,0.7786830854039396
0.009772042044026067,2.6183237806404227,0.878775467149573
0.010382794671777697,2.612640271991649,0.9835639119331157
0.010993547299529326,2.6067272668486337,1.0927710300326163
0.011604299927280955,2.6006008131213685,1.20611600589909
0.012215052555032585,2.5942769016873295,1.3233160668160326
0.012825805182784214,2.5877713776435023,1.4440878610035948
0.013436557810535843,2.5810998595329897,1.568148738168258
0.014047310438287471,2.5742776668035297,1.6952179278746011
0.0146580630660391,2.56731975558802,1.8250176132850873
0.015268815693790731,2.560240662749895,1.957273899747404
0.01587956832154236,2.5530544580100045,2.0917176793881924
0.01649032094929399,2.545774703866677,2.2280853942918966
0.017101073577045618,2.5384144229365626,2.3661197020071456
0.01771182620479725,2.530986072279413,2.5055700480422787
0.018322578832548876,2.5235015242233665,2.6461931507016367
0.018933331460300507,2.5159720531773666,2.7877534040985785
0.019544084088052135,2.5084083279012193,2.93002320548003
0.020154836715803762,2.5008204087001857,3.0727832131376114
0.020765589343555393,2.4932177490173606,3.215822541184772
0.02137634197130702,2.485609200911743,3.358938897371693
0.021987094599058652,2.478003023931042,3.501938669912899
0.02259784722681028,2.4704068969141435,3.6446369690352256
0.02320859985456191,2.462827932287521,3.786857628635305
0.023819352482313542,2.4552726924513975,3.9284331730816056
0.02443010511006517,2.4477472078841087,4.069204753819124
0.025040857737816797,2.440256996626033,4.209022060048373
0.025651610365568428,2.432807084836972,4.347743207360628
0.026262362993320056,2.4254020281524475,4.485234607830769
0.026873115621071687,2.418045933594482,4.62137082469761
0.027483868248823314,2.410742481821045,4.756034414409834
0.028094620876574942,2.403494949524927,4.889115758481465
0.028705373504326573,2.396306231817531,5.020512887291001
0.0293161261320782,2.389178864455705,5.150131297669802
0.029926878759829835,2.382115045790378,5.2778837658631526
0.030537631387581463,2.3751166583344254,5.40369015720762
0.03114838401533309,2.3681852898639195,5.527477233652697
0.03175913664308472,2.361322253981929,5.649178460062895
0.03236988927083635,2.354528610087201,5.768733810064467
0.03298064189858798,2.3478051827018245,5.88608957205164
0.03359139452633961,2.341152580122212,6.001198155835906
0.034202147154091235,2.3345712123665905,6.114017900308343
0.03481289978184286,2.3280613084000548,6.2245128823891624
0.0354236524095945,2.321622932624796,6.33265272745603
0.036034405037346125,2.315256000628891,6.438412421375081
0.03664515766509775,2.3089602941918828,6.5417721242027245
0.03725591029284938,2.302735475549501,6.64271698558128
0.037866662920601014,2.296581100923343,6.741236961816873
0.038477415548352635,2.2904966333242025,6.837326634601242
0.03908816817610427,2.284481454640148,6.930985031320705
0.039698920803855904,2.2785348770223828,7.022215446883274
0.040309673431607525,2.2726561535835788,7.111025266988772
0.04092042605935916,2.2668444884245815,7.197425792765223
0.04153117868711079,2.261099046006459,7.281432066697337
0.04214193131486242,2.2554189598856444,7.363062699779881
0.04275268394261404,2.249803340830543,7.442339699836687
0.04336343657036568,2.2442512843383797,7.519288300958447
0.043974189198117304,2.23876187757148,7.593936794024878
0.04458494182586893,2.233334205732267,7.666316358291455
0.04519569445362056,2.227967357896519,7.736460894036825
0.045806447081372194,2.2226604323243753,7.804406856281708
0.04641719970912382,2.217412541268683,7.870193089607918
0.04702795233687545,2.2122228153001076,7.933860664120551
0.047638704964627084,2.207090407168492,7.995452712613518
0.048249457592378704,2.2020144952196943,8.055014269013444
0.04886021022013034,2.1969942863870844,8.112592108191071
0.049470962847881966,2.1920290187766835,8.168234587244223
0.050081715475633594,2.187117963864735,8.221991488368166
0.05069246810338522,2.1822604283263263,8.2739138634415
0.051303220731136856,2.177455755513461,8.324053880466172
0.05191397335888848,2.1727033266007174,8.372464672009412
0.05252472598664011,2.1680025614164653,8.419200185804126
0.053135478614391746,2.1633529189772798,8.464315037669797
0.05374623124214337,2.1587538977429865,8.507864366923089
0.054356983869895,2.1542050356094604,8.549903694450188
0.05496773649764663,2.149705909656037,8.590488783616655
0.05557848912539826,2.145256135664065,8.629675504191551
0.056189241753149884,2.1408553674228443,8.667519699463877
0.05679999438090152,2.1365032958388306,8.704077056727286
0.057410747008653146,2.132199647863687,8.739402981308665
0.05802149963640477,2.1279441852563696,8.7735524743115
0.0586322522641564,2.1237367031940986,8.806580014242375
0.059243004891908035,2.1195770287466633,8.838539442682533
0.05985375751965967,2.1154650192281412,8.869483854161693
0.06046451014741129,2.1114005604397046,8.89946549038381
0.061075262775162925,2.107383564816752,8.928535638946752
0.06168601540291455,2.1034139694932255,8.956744536690572
0.06229676803066618,2.099491734295518,8.98414127779884
0.0629075206584178,2.0956168396779224,9.010773726769505
0.06351827328616944,2.0917892846111865,9.03668843636041
0.06412902591392107,2.0880090844352237,9.061930570605044
0.0647397785416727,2.084276268686627,9.08654383298381
0.06535053116942433,2.080590878911154,9.110570399823613
0.06596128379717596,2.0769529664708926,9.134050858988711
0.0665720364249276,2.073362590355371,9.15702415391372
0.06718278905267921,2.0698198150054132,9.179527533017728
0.06779354168043085,2.066324708158065,9.201596504527936
0.06840429430818247,2.062877338720499,9.223264796727767
0.06901504693593409,2.0594777746803157,9.244564323634355
0.06962579956368573,2.0561260810592263,9.265525156097487
0.07023655219143736,2.052822317916681,9.286175498301214
0.070847304819189,2.049566538409522,9.306541669636857
0.07145805744694061,2.046358786913357,9.326648091905854
0.07206881007469225,2.0431990972108927,9.346517281799125
0.07267956270244387,2.040087490752064,9.366169848587798
0.0732903153301955,2.0370239749903987,9.38562449695153
0.07390106795794714,2.0340085417996145,9.404898034857245
0.07451182058569876,2.0310411659741163,9.424005386392777
0.0751225732134504,2.0281218038166093,9.442959609449211
0.07573332584120203,2.0252503918157396,9.46177191813562
0.07634407846895366,2.0224268454162355,9.480451709800354
0.07695483109670527,2.019651057883745,9.499006596524648
0.0775655837244569,2.016922899266151,9.517442440944702
0.07817633635220854,2.0142422154528496,9.535763396248795
0.07878708897996017,2.0116088273331374,9.553971950191016
0.07939784160771181,2.0090225300545295,9.57206897295112
0.08000859423546343,2.0064830923815387,9.590053768666209
0.08061934686321505,2.0039902561551277,9.60792413045039
0.08123009949096668,2.0015437358527572,9.62567639871276
0.08184085211871832,1.9991432182487001,9.643305522578482
0.08245160474646994,1.996788362173967,9.660805124210057
0.08306235737422157,1.9944787983749808,9.678167565822221
0.08367311000197321,1.9922141294698352,9.695384019177453
0.08428386262972484,1.9899939300007667,9.712444537346306
0.08489461525747646,1.9878177465811977,9.729338128510516
0.08550536788522808,1.9856850981354979,9.746052831584583
0.08611612051297972,1.9835954762293964,9.762575793429187
0.08672687314073135,1.981548345488736,9.778893347424729
0.08733762576848299,1.9795431441041054,9.794991093174332
0.08794837839623461,1.9775792844186393,9.810853977101662
0.08855913102398623,1.9756561535961443,9.82646637370939
0.08916988365173786,1.9737731143664605,9.841812167263399
0.0897806362794895,1.9719295058449053,9.856874833667417
0.09039138890724112,1.970124644422382,9.871637522295766
0.09100214153499275,1.9683578247226599,9.88608313754922
0.09161289416274439,1.9666283206231596,9.90019441990639
0.09222364679049602,1.9649353863354757,9.913954026240273
0.09283439941824764,1.9632782575417194,9.927344609177169
0.09344515204599926,1.9616561525826846,9.94034889527634
0.0940559046737509,1.9600682736937352,9.952949761814397
0.09466665730150253,1.9585138082842175,9.965130311963318
0.09527740992925417,1.9569919302561416,9.97687394815705
0.09588816255700579,1.9555018013578052,9.988164443446802
0.09649891518475741,1.954042572567981,9.998986010653432
0.09710966781250904,1.9526133855062602,10.009323369132424
0.09772042044026068,1.9512133738651014,10.019161808974223
0.09833117306801231,1.9498416648591357,10.028487252472265
0.09894192569576393,1.9484973806872665,10.037286312699994
0.09955267832351557,1.9471796400031145,10.045546349047058
0.10016343095126719,1.9458875593893932,10.053255519576481
0.10077418357901882,1.9446202548318055,10.060402830073105
0.10138493620677044,1.9433768431881377,10.066978179666611
0.10199568883452208,1.9421564436482652,10.072972402922593
0.10260644146227371,1.9409581791808481,10.078377308306823
0.10321719409002535,1.9397811779626193,10.083185712940836
0.10382794671777695,1.9386245747862085,10.087391473577728
0.10443869934552859,1.9374875124426105,10.090989513741231
0.10504945197328022,1.9363691430744814,10.093975846981847
0.10566020460103186,1.9352686294966068,10.096347596218498
0.10627095722878349,1.934185146480017,10.098103009145973
0.10688170985653511,1.9331178819963681,10.099241469700756
0.10749246248428675,1.9320660384193897,10.099763505591957
0.10810321511203837,1.9310288336803565,10.09967079191654
0.10871396773979,1.9300055023747058,10.098966150889202
0.10932472036754162,1.9289952968171564,10.097653547732008
0.10993547299529326,1.9279974880428237,10.095738082779388
0.11054622562304489,1.9270113667520583,10.09322597986651
0.11115697825079653,1.9260362441969414,10.090124571081576
0.11176773087854816,1.9250714530075534,10.086442277971944
0.11237848350629977,1.92411634795639,10.082188589307082
0.1129892361340514,1.9231703066594688,10.077374035509814
0.11359998876180304,1.9222327302129314,10.072010159878547
0.11421074138955467,1.9213030437641374,10.066109486731943
0.11482149401730629,1.920380697016486,10.059685486616669
0.11543224664505793,1.9194651646674037,10.052752538725635
0.11604299927280955,1.918555946779181,10.045325890685154
0.11665375190056118,1.9176525690825363,10.037421615872141
0.1172645045283128,1.9167545832130015,10.029056568431225
0.11787525715606444,1.915861566880457,10.020248336168068
0.11848600978381607,1.914973123972318,10.011015191496877
0.1190967624115677,1.9140888845910962,10.001376040627369
0.11970751503931934,1.9132085050272525,9.991350371178838
0.12031826766707095,1.9123316676684357,9.98095819841037
0.12092902029482258,1.9114580808463952,9.970220010261126
0.12153977292257422,1.910587478623021,9.959156711392893
0.12215052555032585,1.9097196205171285,9.947789566429698
0.12276127817807747,1.9088542911737658,9.9361401425885
0.1233720308058291,1.9079912999779693,9.924230251893956
0.12398278343358073,1.9071304806150189,9.912081893169413
0.12459353606133236,1.9062716905793913,9.89971719399325
0.125204288689084,1.9054148106346978,9.887158352807878
0.1258150413168356,1.9045597442270417,9.874427581365314
0.12642579394458725,1.9037064168542677,9.861547047687488
0.12703654657233887,1.9028547753937315,9.84853881971876
0.12764729920009052,1.9020047873912254,9.835424809838178
0.12825805182784214,1.9011564403138073,9.82222672039859
0.12886880445559376,1.90030974076931,9.808965990449598
0.1294795570833454,1.8994647136953597,9.795663743797515
0.13009030971109703,1.8986214015207639,9.782340738547811
0.13070106233884865,1.8977798633021419,9.769017318268407
0.13131181496660027,1.8969401738387117,9.755713364905478
0.13192256759435192,1.8961024227681027,9.742448253573691
0.13253332022210354,1.8952667136461154,9.72924080933861
0.1331440728498552,1.8944331630132776,9.716109266095671
0.13375482547760678,1.8936018994510644,9.703071227647367
0.13436557810535843,1.8927730626305972,9.690143631066924
0.13497633073311005,1.8919468023565913,9.677342712430839
0.1355870833608617,1.891123277609302,9.664683974994276
0.13619783598861332,1.8903026555871176,9.652182159871696
0.13680858861636494,1.889485110752441,9.639851219279878
0.13741934124411656,1.8886708238833818,9.627704292389028
0.13803009387186818,1.887859981133746,9.615753683820232
0.13864084649961983,1.8870527731037086,9.604010844819012
0.13925159912737145,1.8862493939234768,9.592486357124097
0.1398623517551231,1.885450040352165,9.581189919545515
0.14047310438287472,1.8846549108940107,9.570130337254552
0.14108385701062634,1.88386420493395,9.559315513781238
0.141694609638378,1.8830781218944974,9.548752445707251
0.1423053622661296,1.8822968604157453,9.5384472200339
0.14291611489388123,1.8815206175602095,9.528405014196775
0.14352686752163288,1.8807495880441356,9.518630098692146
0.1441376201493845,1.8799839634967712,9.509125842272221
0.14474837277713615,1.8792239317489936,9.49989471965994
0.14535912540488774,1.878469676152592,9.490938321726874
0.14596987803263936,1.8777213749313548,9.482257368072304
0.146580630660391,1.8769792005650376,9.473851721933228
0.14719138328814263,1.8762433192071515,9.46572040735336
0.14780213591589428,1.8755138901374058,9.457861628528207
0.1484128885436459,1.8747910652495283,9.45027279124321
0.14902364117139752,1.8740749885750767,9.442950526314046
0.14963439379914917,1.873365795843738,9.435890714934215
0.1502451464269008,1.872663614080512,9.429088515831591
0.15085589905465244,1.871968561240059,9.422538394130761
0.15146665168240406,1.8712807458783982,9.416234151815248
0.15207740431015568,1.8706002668620239,9.410168959679556
0.15268815693790733,1.8699272131144213,9.40433539065962
0.15329890956565892,1.8692616633998445,9.398725454425303
0.15390966219341054,1.8686036861441493,9.393330633119467
0.1545204148211622,1.8679533392923446,9.388141918123507
0.1551311674489138,1.867310670202471,9.383149847729388
0.15574192007666546,1.866675715575295,9.378344545597283
0.15635267270441708,1.8660485014192372,9.373715759874658
0.1569634253321687,1.8654290430498734,9.369252902856559
0.15757417795992035,1.8648173451232524,9.364945091062056
0.15818493058767197,1.8642134017022127,9.360781185605155
0.15879568321542362,1.8636171963548054,9.35674983273809
0.15940643584317524,1.863028702283844,9.352839504445368
0.16001718847092686,1.862447882486573,9.3490385389692
0.1606279410986785,1.861874689943337,9.34533518114678
0.1612386937264301,1.861309067834123,9.341717622444042
0.16184944635418172,1.8607509497817571,9.338174040570332
0.16246019898193337,1.8602002601205008,9.334692638562604
0.163070951609685,1.8596569141887593,9.331261683229792
0.16368170423743664,1.8591208186445403,9.327869542850285
0.16429245686518826,1.8585918718022985,9.32450472402076
0.16490320949293988,1.8580699639897424,9.321155907556042
0.16551396212069153,1.8575549779231622,9.31781198334449
0.16612471474844315,1.857046789099808,9.314462084067438
0.1667354673761948,1.856545266205831,9.311095617695543
0.16734622000394642,1.8560502715382758,9.307702298678818
0.16795697263169804,1.8555616614396058,9.304272177752143
0.16856772525944969,1.8550792867432337,9.300795670284025
0.16917847788720128,1.8546029932285235,9.297263583098712
0.16978923051495293,1.854132622083729,9.293667139710072
0.17039998314270455,1.8536680103753438,9.289998003909124
0.17101073577045617,1.853208991522338,9.286248301652972
0.17162148839820782,1.8527553957737735,9.28241064120824
0.17223224102595944,1.8523070506883066,9.278478131509623
0.17284299365371106,1.8518637816141033,9.274444398696263
0.1734537462814627,1.8514254121677192,9.270303600798693
0.17406449890921433,1.8509917647105187,9.266050440551796
0.17467525153696598,1.8505626608212506,9.261680176316588
0.1752860041647176,1.8501379217634117,9.257188631099716
0.17589675679246922,1.8497173689460884,9.25257219966369
0.17650750942022086,1.8493008243769995,9.247827853730243
0.17711826204797246,1.8488881111064963,9.24295314528035
0.1777290146757241,1.8484790536613445,9.237946207964448
0.17833976730347573,1.8480734784671418,9.232805756639278
0.17895051993122735,1.8476712142582934,9.227531085055446
0.179561272558979,1.8472720924745079,9.222122061722693
0.18017202518673062,1.8468759476428442,9.21657912398805
0.18078277781448224,1.8464826177443947,9.210903270365046
0.18139353044223389,1.846091944564748,9.205096051158387
0.1820042830699855,1.8457037740274407,9.199159557432559
0.18261503569773715,1.8453179565096707,9.193096408378176
0.18322578832548878,1.84493434713961,9.186909737133494
0.1838365409532404,1.8445528060747152,9.18060317512443
0.18444729358099204,1.8441731987605106,9.174180834987101
0.18505804620874364,1.8437953961693783,9.167647292144842
0.18566879883649529,1.8434192750189629,9.161007565111703
0.1862795514642469,1.8430447179698615,9.154267094599653
0.18689030409199853,1.842671613802338,9.147431721508504
0.18750105671975018,1.842299857571876,9.1405076638811
0.1881118093475018,1.8419293507434438,9.13350149290858
0.18872256197525342,1.8415600013044122,9.126420108071283
0.18933331460300507,1.8411917238561357,9.119270711505639
0.18994406723075669,1.8408244396842715,9.112060781684882
0.19055481985850833,1.840458076807972,9.10479804650693
0.19116557248625995,1.840092570008149,9.097490455879537
0.19177632511401158,1.8397278608350736,9.09014615389717
0.19238707774176322,1.8393638975956244,9.082773450701604
0.19299783036951482,1.8390006353205683,9.075380794119454
0.19360858299726647,1.8386380357122956,9.067976741169602
0.19421933562501809,1.838276067073502,9.0605699295329
0.1948300882527697,1.8379147042173467,9.053169049074315
0.19544084088052135,1.8375539283596685,9.045782813509419
0.19605159350827298,1.8371937269938936,9.038419932302403
0.19666234613602462,1.8368340937493033,9.031089082883568
0.19727309876377624,1.8364750282333666,9.023798883270858
0.19788385139152787,1.8361165358589007,9.016557865178608
0.1984946040192795,1.8357586276568278,9.009374447693952
0.19910535664703113,1.8354013200753536,9.002256911598206
0.19971610927478275,1.8350446347664067,8.995213374408978
0.20032686190253438,1.8346885983602055,8.988251766213383
0.200937614530286,1.834333242228851,8.981379806362554
0.20154836715803764,1.8339786022398472,8.974604981090668
0.20215911978578927,1.8336247185004846,8.967934522121249
0.20276987241354089,1.8332716350940195,8.96137538631709
0.20338062504129253,1.8329193998086042,8.954934236428565
0.20399137766904415,1.8325680638599233,8.948617422988375
0.2046021302967958,1.832217681608495,8.942430967399455
0.20521288292454742,1.8318683102726008,8.936380546255718
0.20582363555229904,1.8315200096378057,8.930471476933665
0.2064343881800507,1.8311728417640143,8.924708704485104
0.2070451408078023,1.83082687069102,8.919096789860927
0.2076558934355539,1.8304821621434768,8.913639899487006
0.20826664606330555,1.8301387832362153,8.908341796211912
0.20887739869105718,1.8297968021808115,8.903205831640463
0.20948815131880882,1.8294562879942948,8.898234939861334
0.21009890394656044,1.8291173102108613,8.893431632575242
0.21070965657431207,1.8287799385974361,8.888797995622722
0.2113204092020637,1.8284442428738992,8.884335686907626
0.21193116182981533,1.8281102924387707,8.880045935708432
0.21254191445756698,1.8277781561011046,8.875929543363666
0.2131526670853186,1.8274479018193304,8.871986885314591
0.21376341971307022,1.8271195964477296,8.868217914483898
0.21437417234082187,1.8267933054912107,8.864622165965288
