frequency,refractiveIndex,absorption
0.0006107526277516292,2.681806369656046,0.0025504192792128256
0.0012215052555032584,2.6813947053356957,0.010196159727905177
0.0018322578832548875,2.680709604594947,0.02292070251578356
0.002443010511006517,2.679752570322525,0.04069662695442708
0.003053763138758146,2.6785256930541297,0.06348577505753351
0.003664515766509775,2.6770316376800602,0.09123947899357832
0.004275268394261404,2.67527362665821,0.12389884857743892
0.004886021022013034,2.6732554199503546,0.16139511524090894
0.005496773649764663,2.670981291937763,0.20365002829195852
0.006107526277516292,2.668456005605065,0.2505762987303972
0.006718278905267922,2.665684784307762,0.30207808544226433
0.00732903153301955,2.6626732814589786,0.35805151825253045
0.00793978416077118,2.6594275484846563,0.41838525207826305
0.008550536788522809,2.6559540014033702,0.4829610462920571
0.009161289416274438,2.652259386387575,0.5516543633753348
0.009772042044026067,2.64835074465786,0.6243349810074575
0.010382794671777697,2.644235377050837,0.7008676118921341
0.010993547299529326,2.6399208085857393,0.7811125258573496
0.011604299927280955,2.6354147533348766,0.8649261690693143
0.012215052555032585,2.630725079879804,0.9521617755623101
0.012825805182784214,2.625859777609085,1.0426699666934884
0.013436557810535843,2.6208269240855926,1.1362993345726808
0.014047310438287471,2.6156346536822257,1.2328970059803905
0.0146580630660391,2.6102911276552487,1.3323091837615346
0.015268815693790731,2.604804505794957,1.4343816631584654
0.01587956832154236,2.5991829197645737,1.5389603210149292
0.01649032094929399,2.5934344482104814,1.6458915762356463
0.017101073577045618,2.587567093700738,1.7550228203171125
0.01771182620479725,2.5815887615245106,1.8662028171698573
0.018322578832548876,2.575507240362655,1.9792820718251216
0.018933331460300507,2.5693301848196803,2.0941131679588088
0.019544084088052135,2.563065099789498,2.2105510744694334
0.020154836715803762,2.5567193266118675,2.328453421614792
0.020765589343555393,2.5503000309633577,2.447680747443858
0.02137634197130702,2.5438141924155784,2.5680967154570205
0.021987094599058652,2.5372685955847123,2.689568304590442
0.02259784722681028,2.5306698227894495,2.8119659727511457
0.02320859985456191,2.5240242481294,2.935163795230279
0.023819352482313542,2.517338032892765,3.0590395793958503
0.02443010511006517,2.510617122200045,3.18347495711476
0.025040857737816797,2.5038672427900908,3.308355456381446
0.025651610365568428,2.4970939018553597,3.433570553637053
0.026262362993320056,2.490302386834688,3.5590137082543705
0.026873115621071687,2.4834977660743474,3.6845823806393154
0.027483868248823314,2.476684890271137,3.8101780353646717
0.028094620876574942,2.4698683946147266,3.935706130705317
0.028705373504326573,2.4630527015505637,4.06107609589154
0.0293161261320782,2.456242024088735,4.186201297336404
0.029926878759829835,2.449440369588754,4.310998995030501
0.030537631387581463,2.442651543954687,4.435390290228951
0.03114838401533309,2.4358791561796873,4.559300065487968
0.03175913664308472,2.429126623183534,4.682656918038048
0.03236988927083635,2.422397174891289,4.805393087412097
0.03298064189858798,2.4156938595055064,4.927444378177956
0.03359139452633961,2.409019548928716,5.048750078558906
0.034202147154091235,2.4023769442968814,5.1692528756602965
0.03481289978184286,2.3957685815884053,5.288898767958991
0.0354236524095945,2.389196837276881,5.407636975652475
0.036034405037346125,2.3826639339992415,5.52541984940892
0.03664515766509775,2.3761719462140625,5.642202778005181
0.03725591029284938,2.3697228058278412,5.757944095290857
0.037866662920601014,2.3633183077697626,5.87260498686888
0.038477415548352635,2.356960115498031,5.986149396840437
0.03908816817610427,2.350649766423142,6.098543934920669
0.039698920803855904,2.344388677235602,6.209757784195
0.040309673431607525,2.3381781491275624,6.3197626097516615
0.04092042605935916,2.332019372899534,6.428532468393676
0.04153117868711079,2.32591343394497,6.53604371960599
0.04214193131486242,2.3198613171069113,6.642274937926168
0.04275268394261404,2.313863911402165,6.7472068268442165
0.04336343657036568,2.307922014609572,6.850822134334825
0.043974189198117304,2.302036337720021,6.953105570106846
0.04458494182586893,2.2962075092466465,7.054043724636528
0.04519569445362056,2.290436079394489,7.153624990036668
0.045806447081372194,2.284722524089565,7.251839482798943
0.04641719970912382,2.279067248867875,7.348678968435185
0.04702795233687545,2.27347059262537,7.444136788032581
0.047638704964627084,2.2679328312304006,7.538207786728017
0.048249457592378704,2.2624541810004333,7.630888244098848
0.04886021022013034,2.2570348020452418,7.722175806460141
0.049470962847881966,2.2516748014789583,7.812069421052529
0.050081715475633594,2.2463742365036317,7.900569272099634
0.05069246810338522,2.2411331173670566,7.987676718709086
0.051303220731136856,2.2359514101978513,8.073394234588756
0.05191397335888848,2.230829039720766,8.157725349545592
0.05252472598664011,2.225765891855359,8.240674592733084
0.053135478614391746,2.2207618162011773,8.32224743761105
0.05374623124214337,2.2158166284126524,8.402450248580648
0.054356983869895,2.2109301124668446,8.481290229255686
0.05496773649764663,2.2061020228273125,8.558775372332391
0.05557848912539826,2.201332086507189,8.63491441101762
0.056189241753149884,2.1966200050346814,8.709716771977684
0.05679999438090152,2.191965456324054,8.783192529768632
0.057410747008653146,2.1873680964551836,8.85535236271048
0.05802149963640477,2.1828275613646984,8.926207510168469
0.0586322522641564,2.178343468451655,8.995769731204774
0.059243004891908035,2.1739154181006555,9.064051264566068
0.05985375751965967,2.169542995125278,9.1310647899731
0.06046451014741129,2.1652257701345583,9.196823390679349
0.061075262775162925,2.1609633008253057,9.261340517267962
0.06168601540291455,2.1567551332028567,9.324629952656917
0.06229676803066618,2.1526008027329198,9.38670577828404
0.0629075206584178,2.1484998354270184,9.447582341445226
0.06351827328616944,2.1444517488640313,9.507274223759588
0.06412902591392107,2.140456053150256,9.56579621073853
0.0647397785416727,2.1365122518203417,9.62316326243509
0.06535053116942433,2.1326198426814407,9.679390485153348
0.06596128379717596,2.1287783186027984,9.734493104196721
0.0665720364249276,2.124987168253017,9.788486437638259
0.06718278905267921,2.121245876787124,9.841385871093646
0.06779354168043085,2.1175539264855763,9.893206833482738
0.06840429430818247,2.113910797347245,9.943964773763431
0.06901504693593409,2.1103159676383925,9.993675138624361
0.06962579956368573,2.10676891439961,10.042353351123538
0.07023655219143736,2.1032691139126567,10.090014790261026
0.070847304819189,2.0998160421290564,10.13667477147456
0.07145805744694061,2.0964091750623077,10.182348528047262
0.07206881007469225,2.093047989145512,10.227051193418799
0.07267956270244387,2.089731961556162,10.270797784389671
0.0732903153301955,2.086460570509834,10.313603185211132
0.07390106795794714,2.08323329552444,10.355482132551863
0.07451182058569876,2.0800496176567163,10.396449201334104
0.0751225732134504,2.0769090197125206,10.43651879143134
0.07573332584120203,2.0738109864325383,10.475705115220574
0.07634407846895366,2.0707550046548966,10.514022185981299
0.07695483109670527,2.067740563456216,10.551483807134808
0.0775655837244569,2.0647671542725266,10.58810356231603
0.07817633635220854,2.061834271001477,10.623894806269917
0.07878708897996017,2.058941410087233,10.658870656566512
0.07939784160771181,2.0560880705893756,10.693043986124545
0.08000859423546343,2.0532737542371406,10.726427416537149
0.08061934686321505,2.0504979654702438,10.759033312190308
0.08123009949096668,2.047760211467521,10.790873775164801
0.08184085211871832,2.0450600021645933,10.821960640912692
0.08245160474646994,2.0423968502616736,10.852305474697674
0.08306235737422157,2.0397702712226637,10.88191956878892
0.08367311000197321,2.0371797832665863,10.910813940396707
0.08428386262972484,2.034624907352393,10.93899933033844
0.08489461525747646,2.032105167158145,10.966486202421578
0.08550536788522808,2.0296200890555136,10.993284743530522
0.08611612051297972,2.027169202080502,11.019404864402734
0.08672687314073135,2.0247520379012807,11.044856201079813
0.08733762576848299,2.0223681307839483,11.069648117017035
0.08794837839623461,2.020017017557012,11.093789705834922
0.08855913102398623,2.017698237575349,11.117289794695672
0.08916988365173786,2.0154113326843186,11.14015694828577
0.0897806362794895,2.01315584718475,11.162399473385891
0.09039138890724112,2.0109313277993826,11.184025424008462
0.09100214153499275,2.008737323641369,11.205042607081795
0.09161289416274439,2.0065733861853743,11.225458588658995
0.09222364679049602,2.0044390692418066,11.245280700630637
0.09283439941824764,2.002333928934605,11.264516047916281
0.09344515204599926,2.000257523683043,11.283171516112931
0.0940559046737509,1.9982094141879239,11.301253779574091
0.09466665730150253,1.9961891634225308,11.318769309895819
0.09527740992925417,1.994196336628622,11.335724384782562
0.09588816255700579,1.9922305013177797,11.352125097267104
0.09649891518475741,1.9902912272783173,11.367977365257024
0.09710966781250904,1.9883780865879737,11.383286941380181
0.09772042044026068,1.9864906536325566,11.398059423100976
0.09833117306801231,1.9846285051306527,11.412300263078258
0.09894192569576393,1.9827912201645261,11.426014779736677
0.09955267832351557,1.980978380217252,11.439208168020745
0.10016343095126719,1.9791895692161323,11.451885510302926
0.10077418357901882,1.9774243735823764,11.464051787414327
0.10138493620677044,1.9756823822870424,11.475711889769123
0.10199568883452208,1.9739631869131447,11.486870628550237
0.10260644146227371,1.9722663817238757,11.497532746927604
0.10321719409002535,1.9705915637367923,11.507702931276574
0.10382794671777695,1.9689383328038363,11.517385822366665
0.10443869934552859,1.9673062916970114,11.526586026489376
0.10504945197328022,1.9656950461995308,11.535308126495197
0.10566020460103186,1.9641042052021913,11.54355669270845
0.10627095722878349,1.962533380804744,11.55133629369061
0.10688170985653511,1.9609821884219973,11.558651506822185
0.10749246248428675,1.9594502468943429,11.565506928673097
0.10810321511203837,1.95793717860241,11.571907185133105
0.10871396773979,1.9564426095855219,11.577856941274705
0.10932472036754162,1.9549661696635896,11.583360910918259
0.10993547299529326,1.9535074925621025,11.588423865875173
0.11054622562304489,1.9520662160398137,11.593050644840325
0.11115697825079653,1.9506419820187466,11.597246161909668
0.11176773087854816,1.9492344367161036,11.601015414697816
0.11237848350629977,1.9478432307776643,11.604363492031409
0.1129892361340514,1.9464680194122443,11.607295581196995
0.11359998876180304,1.9451084625267763,11.609816974719877
0.11421074138955467,1.9437642248615774,11.611933076655687
0.11482149401730629,1.9424349761253346,11.613649408373616
0.11543224664505793,1.941120391129374,11.614971613814753
0.11604299927280955,1.9398201499207441,11.61590546420871
0.11665375190056118,1.9385339379136544,11.616456862233168
0.1172645045283128,1.9372614460188102,11.61663184560279
0.11787525715606444,1.9360023707701925,11.616436590076455
0.11848600978381607,1.9347564144488134,11.615877411870786
0.1190967624115677,1.9335232852030078,11.614960769472479
0.11970751503931934,1.9323026971648145,11.613693264841809
0.12031826766707095,1.9310943705620014,11.612081644001732
0.12092902029482258,1.9298980318253156,11.610132797009303
0.12153977292257422,1.9287134136905335,11.607853757307154
0.12215052555032585,1.9275402552949052,11.605251700455327
0.12276127817807747,1.9263783022676038,11.602333942244819
0.1233720308058291,1.9252273068137966,11.599107936196642
0.12398278343358073,1.9240870277919722,11.595581270451586
0.12459353606133236,1.9229572307841913,11.591761664058088
0.125204288689084,1.9218376881589132,11.587656962666838
0.1258150413168356,1.9207281791261175,11.583275133643959
0.12642579394458725,1.919628489784403,11.578624260613445
0.12703654657233887,1.9185384131598326,11.573712537445857
0.12764729920009052,1.9174577492362535,11.568548261706631
0.12825805182784214,1.9163863049768977,11.56313982758412
0.12886880445559376,1.9153238943370532,11.557495718315153
0.1294795570833454,1.9142703382676536,11.551624498130042
0.13009030971109703,1.9132254647096318,11.545534803739097
0.13070106233884865,1.912189108578931,11.539235335385115
0.13131181496660027,1.9111611117420868,11.532734847486273
0.13192256759435192,1.9101413229823108,11.526042138897244
0.13253332022210354,1.909129597956064,11.519166042816192
0.1331440728498552,1.9081257991400913,11.512115416365525
0.13375482547760678,1.9071297957689621,11.50489912987844
0.13436557810535843,1.9061414637631586,11.497526055920762
0.13497633073311005,1.9051606856477958,11.49000505808058
0.1355870833608617,1.9041873504620794,11.482344979558752
0.13619783598861332,1.9032213536596427,11.474554631592573
0.13680858861636494,1.9022625969999123,11.466642781747575
0.13741934124411656,1.9013109884307071,11.458618142110863
0.13803009387186818,1.900366441962271,11.45048935742119
0.13864084649961983,1.899428877532985,11.442264993170191
0.13925159912737145,1.8984982208670185,11.433953523709848
0.1398623517551231,1.8975744033242077,11.425563320400762
0.14047310438287472,1.8966573617424713,11.417102639836767
0.14108385701062634,1.895747038273083,11.408579612179233
0.141694609638378,1.894843380209158,11.400002229636078
0.1423053622661296,1.8939463398077232,11.391378335118592
0.14291611489388123,1.8930558741057413,11.382715611109852
0.14352686752163288,1.892171944730505,11.374021568776227
0.1441376201493845,1.8912945177048108,11.365303537354308
0.14474837277713615,1.8904235632473323,11.356568653844008
0.14535912540488774,1.8895590555686492,11.347823853037427
0.14596987803263936,1.888700972663366,11.339075857912187
0.146580630660391,1.8878492960987932,11.330331170417407
0.14719138328814263,1.8870040108006443,11.321596062678116
0.14780213591589428,1.8861651048362353,11.31287656864397
0.1484128885436459,1.8853325691956442,11.304178476205227
0.14902364117139752,1.8845063975713348,11.295507319799848
0.14963439379914917,1.8836865861367005,11.286868373530858
0.1502451464269008,1.8828731333240274,11.278266644814869
0.15085589905465244,1.8820660396023423,11.269706868579396
0.15146665168240406,1.8812653072556365,11.261193502024598
0.15207740431015568,1.880470940161923,11.252730719964832
0.15268815693790733,1.879682943573606,11.244322410763411
0.15329890956565892,1.8789013238996126,11.235972172870454
0.15390966219341054,1.8781260884897504,11.22768331197517
0.1545204148211622,1.8773572454217209,11.219458838779543
0.1551311674489138,1.8765948032912372,11.211301467399913
0.15574192007666546,1.8758387710056523,11.20321361440177
0.15635267270441708,1.8750891575815185,11.195197398468647
0.1569634253321687,1.8743459719464717,11.187254640708868
0.15757417795992035,1.873609222745825,11.179386865597817
0.15818493058767197,1.8728789181542334,11.171595302554246
0.15879568321542362,1.8721550656927881,11.163880888145972
0.15940643584317524,1.8714376720518815,11.156244268921682
0.16001718847092686,1.8707267429201493,11.148685804858987
0.1606279410986785,1.8700222828198072,11.14120557342239
0.1612386937264301,1.8693242949486593,11.133803374220134
0.16184944635418172,1.8686327810290428,11.126478734248114
0.16246019898193337,1.8679477411639667,11.119230913709128
0.163070951609685,1.8672691737006692,11.112058912391358
0.16368170423743664,1.866597075101801,11.104961476591988
0.16429245686518826,1.865931439824433,11.097937106567736
0.16490320949293988,1.8652722602070564,11.090984064494856
0.16551396212069153,1.864619526364727,11.084100382918328
0.16612471474844315,1.863973226092495,11.077283873670792
0.1667354673761948,1.8633333447772202,11.07053213723849
0.16734622000394642,1.8626998653178786,11.063842572551534
0.16795697263169804,1.862072768054429,11.057212387175989
0.16856772525944969,1.861452030705297,11.050638607881337
0.16917847788720128,1.8608376283135126,11.044118091559968
0.16978923051495293,1.8602295332015124,11.03764753646983
0.17039998314270455,1.859627714934614,11.031223493776263
0.17101073577045617,1.8590321402931347,11.02484237936256
0.17162148839820782,1.8584427732531115,11.018500485882594
0.17223224102595944,1.8578595749755815,11.012193995026685
0.17284299365371106,1.857282503804321,11.005918989970056
0.1734537462814627,1.8567115152719758,10.999671467975753
0.17406449890921433,1.856146562114452,10.993447353120748
0.17467525153696598,1.8555875942934548,10.987242509115312
0.1752860041647176,1.855034559027018,10.981052752185011
0.17589675679246922,1.854487400827872,10.974873863984456
0.17650750942022086,1.8539460615494752,10.968701604512086
0.17711826204797246,1.8534104804395048,10.962531724994271
0.1777290146757241,1.8528805942006181,10.95635998070934
0.17833976730347573,1.8523563370582459,10.95018214371951
0.17895051993122735,1.8518376408351944,10.943994015480488
0.179561272558979,1.8513244350328026,10.937791439298959
0.18017202518673062,1.8508166469183895,10.931570312606713
0.18078277781448224,1.850314201618726,10.925326599023442
0.18139353044223389,1.8498170222192332,10.91905634017764
0.1820042830699855,1.8493250298686246,10.912755667257972
0.18261503569773715,1.848838143888664,10.906420812265653
0.18322578832548878,1.8483562818887465,10.900048118943184
0.1838365409532404,1.8478793598849448,10.893634053349531
0.18444729358099204,1.8474072924232128,10.887175214058454
0.18505804620874364,1.8469399927063823,10.880668341953895
0.18566879883649529,1.84647737272461,10.874110329599075
0.1862795514642469,1.8460193433889156,10.86749823015561
0.18689030409199853,1.8455658146674416,10.860829265831612
0.18750105671975018,1.8451166957240752,10.854100835837619
0.1881118093475018,1.8446718950590484,10.847310523830487
0.18872256197525342,1.8442313206511494,10.840456104828261
0.18933331460300507,1.8437948801011597,10.833535551577802
0.18994406723075669,1.8433624807761377,10.826547040360088
0.19055481985850833,1.8429340299541728,10.819488956219267
0.19116557248625995,1.8425094349692175,10.812359897603372
0.19177632511401158,1.842088603355634,10.805158680403942
0.19238707774176322,1.8416714429920626,10.797884341387382
0.19299783036951482,1.8412578622442453,10.79053614100802
0.19360858299726647,1.8408477701064339,10.783113565598345
0.19421933562501809,1.8404410763410164,10.775616328930768
0.1948300882527697,1.8400376916159986,10.7680443731488
0.19544084088052135,1.8396375276399963,10.76039786906554
0.19605159350827298,1.8392404972943845,10.752677215831765
0.19666234613602462,1.838846514762279,10.744883039974212
0.19727309876377624,1.8384554956540093,10.737016193809199
0.19788385139152787,1.8380673571287849,10.729077753237501
0.1984946040192795,1.8376820180122353,10.721069014927137
0.19910535664703113,1.8372993989095459,10.712991492895071
0.19971610927478275,1.8369194223139025,10.70484691449713
0.20032686190253438,1.8365420127099856,10.696637215839964
0.200937614530286,1.836167096672261,10.688364536628907
0.20154836715803764,1.8357946029578398,10.680031214468453
0.20215911978578927,1.8354244625936842,10.671639778631706
0.20276987241354089,1.8350566089579616,10.663192943319105
0.20338062504129253,1.8346909778553655,10.654693600426148
0.20399137766904415,1.8343275075862329,10.646144811842332
0.2046021302967958,1.8339661390093185,10.637549801304674
0.20521288292454742,1.833606815598094,10.628911945830383
0.20582363555229904,1.8332494834904631,10.620234766753692
0.2064343881800507,1.8328940915318046,10.611521920394553
0.2070451408078023,1.832540591311274,10.602777188386934
0.2076558934355539,1.8321889371913138,10.594004467694475
0.20826664606330555,1.8318390863303455,10.585207760344556
0.20887739869105718,1.8314909986986199,10.57639116290952
0.20948815131880882,1.8311446370872575,10.567558855767723
0.21009890394656044,1.8307999671104895,10.558715092174118
0.21070965657431207,1.830456957201152,10.549864187173265
0.2113204092020637,1.830115578599509,10.541010506387678
0.21193116182981533,1.829775805335483,10.532158454711736
0.21254191445756698,1.8294376142043982,10.52331246494629
