frequency,refractiveIndex,absorption
0.0006107526277516292,2.6879316121346633,0.00390677854937204
0.0012215052555032584,2.6872618496598064,0.015613770600148014
0.0018322578832548875,2.6861484257728887,0.035081073585815935
0.002443010511006517,2.684595577801715,0.06224260794488221
0.003053763138758146,2.682609172709847,0.09700674483745424
0.003664515766509775,2.680196643550806,0.13925716659053405
0.004275268394261404,2.6773669101907926,0.188853942326246
0.004886021022013034,2.674130285992188,0.24563479732239563
0.005496773649764663,2.67049837239466,0.3094165514949764
0.006107526277516292,2.666483943508728,0.3799967000556743
0.006718278905267922,2.6621008229445557,0.45715510792092173
0.00732903153301955,2.657363755137679,0.5406557888290853
0.00793978416077118,2.652288273406759,0.6302487403175948
0.008550536788522809,2.6468905668925027,0.7256718066499297
0.009161289416274438,2.641187348389931,0.8266525433653874
0.009772042044026067,2.6351957249079008,0.9329100592382963
0.010382794671777697,2.6289330725801383,1.044156813953364
0.010993547299529326,2.622416917321928,1.1601003526046745
0.011604299927280955,2.6156648223854595,1.2804449610859288
0.012215052555032585,2.6086942837239846,1.4048932294472503
0.012825805182784214,2.6015226338383663,1.5331475132514178
0.013436557810535843,2.5941669545552335,1.6649112857870987
0.014047310438287471,2.586643998979754,1.7998903766252738
0.0146580630660391,2.578970122680547,1.9377940943877048
0.015268815693790731,2.5711612240026707,2.0783362337043627
0.01587956832154236,2.563232693267254,2.2212359681516705
0.01649032094929399,2.555199370503606,2.366218632482689
0.017101073577045618,2.547075511270556,2.5130163986903296
0.01771182620479725,2.538874760056884,2.6613688514008733
0.018322578832548876,2.530610130703993,2.8110234687974236
0.018933331460300507,2.5222939932653956,2.961736015748283
0.019544084088052135,2.5139380667045588,3.113270856089207
0.020154836715803762,2.505553416832864,3.2654011911104326
0.020765589343555393,2.4971504589007196,3.417909231256826
0.02137634197130702,2.488738964274535,3.5705863078881075
0.021987094599058652,2.4803280706590547,3.7232329316926713
0.02259784722681028,2.471926295355833,3.8756588040220796
0.02320859985456191,2.4635415510835257,4.0276827870376835
0.023819352482313542,2.455181163922406,4.179132838149086
0.02443010511006517,2.446851892983133,4.329845913794156
0.025040857737816797,2.438559951437334,4.479667847172782
0.025651610365568428,2.4303110285843963,4.628453204110631
0.026262362993320056,2.4221103126641683,4.776065120805114
0.026873115621071687,2.4139625141589907,4.9223751267964895
0.027483868248823314,2.4058718893600486,5.067262956119998
0.028094620876574942,2.3978422640023505,5.210616349230747
0.028705373504326573,2.3898770567997367,5.35233084795541
0.0293161261320782,2.381979302735905,5.4923095854137465
0.029926878759829835,2.3741516759898538,5.630463072569554
0.030537631387581463,2.3663965123942257,5.76670898281378
0.03114838401533309,2.358715831342899,5.900971935751446
0.03175913664308472,2.351111357080257,6.03318328115995
0.03236988927083635,2.343584539318406,6.163280883903098
0.03298064189858798,2.3361365731410415,6.2912089104267
0.03359139452633961,2.3287684181633157,6.41691761732296
0.034202147154091235,2.321480816926263,6.540363142330526
0.03481289978184286,2.3142743125123566,6.661507298035951
0.0354236524095945,2.3071492653755166,6.780317368455046
0.036034405037346125,2.3001058693845895,6.896765908601459
0.03664515766509775,2.2931441670842054,7.0108305470900705
0.03725591029284938,2.2862640641808913,7.122493791775712
0.037866662920601014,2.2794653432655987,7.2317428383895965
0.038477415548352635,2.272747676786595,7.338569382108316
0.03908816817610427,2.2661106392886823,7.4429694319682556
0.039698920803855904,2.259553718936564,7.5449431280256345
0.040309673431607525,2.253076328341392,7.644494561153618
0.04092042605935916,2.246677814710582,7.741631595365225
0.04153117868711079,2.24035746934166,7.836365692551716
0.04214193131486242,2.234114536481409,7.928711739531388
0.04275268394261404,2.2279482215718716,8.018687877310827
0.04336343657036568,2.221857698904893,8.106315332471034
0.043974189198117304,2.215842118706903,8.19161825060208
0.04458494182586893,2.209900613675506,8.274623531724023
0.04519569445362056,2.2040323049893735,8.355360667645417
0.045806447081372194,2.1982363078125076,8.433861581224944
0.04641719970912382,2.1925117363138664,8.510160467518428
0.04702795233687545,2.1868577082228526,8.584293636806825
0.047638704964627084,2.1812733489408944,8.656299359516886
0.048249457592378704,2.175757795228949,8.726217713060585
0.04886021022013034,2.1703101984903976,8.794090430632913
0.049470962847881966,2.1649297276683934,8.859960752021673
0.050081715475633594,2.159615571776314,8.923873276494646
0.05069246810338522,2.154366942079639,8.98587381784194
0.051303220731136856,2.1491830739470954,9.046009261660544
0.05191397335888848,2.1440632283886116,9.104327424979672
0.05252472598664011,2.1390066932971608,9.160876918331578
0.053135478614391746,2.1340127844112398,9.215707010381387
0.05374623124214337,2.1290808460143413,9.268867495235275
0.054356983869895,2.124210251387358,9.320408562550659
0.05496773649764663,2.1194004030295925,9.370380670577081
0.05557848912539826,2.114650732663529,9.418834422257898
0.056189241753149884,2.1099607010382715,9.465820444525429
0.05679999438090152,2.105329797546137,9.511389270922379
0.057410747008653146,2.1007575396665192,9.555591227682193
0.05802149963640477,2.096243472250787,9.598476323398705
0.0586322522641564,2.091787166661593,9.640094142414458
0.059243004891908035,2.0873882197796054,9.680493742051999
0.05985375751965967,2.0830462528903104,9.71972355380997
0.06046451014741129,2.078760910463139,9.757831288639755
0.061075262775162925,2.0745318588348125,9.794863846413547
0.06168601540291455,2.0703587848083838,9.830867229687597
0.06229676803066618,2.066241394179134,9.865886461857784
0.0629075206584178,2.062179410198018,9.899965509798246
0.06351827328616944,2.0581725719830426,9.933147211063195
0.06412902591392107,2.0542206328885033,9.965473205726605
0.0647397785416727,2.0503233588416743,9.996983872923373
0.06535053116942433,2.0464805266561035,10.027718272147302
0.06596128379717596,2.0426919223303046,10.057714089351805
0.0665720364249276,2.03895733934025,10.087007587889316
0.06718278905267921,2.0352765769336307,10.115633564314994
0.06779354168043085,2.0316494384335124,10.143625309071506
0.06840429430818247,2.0280757295585947,10.171014572059985
0.06901504693593409,2.0245552567668996,10.197831533092991
0.06962579956368573,2.0210878256293174,10.22410477721468
0.07023655219143736,2.0176732392390866,10.249861274863399
0.070847304819189,2.0143112966628522,10.275126366840635
0.07145805744694061,2.0110017914386202,10.299923754041883
0.07206881007469225,2.007744510125528,10.324275491893193
0.07267956270244387,2.004539230909964,10.348201989427945
0.0732903153301955,2.001385722272264,10.371722012929135
0.07390106795794714,1.9982837417177701,10.39485269405137
0.07451182058569876,1.9952330345757758,10.417609542329556
0.0751225732134504,1.99223333286945,10.44000646196924
0.07573332584120203,1.9892843542595533,10.462055772807908
0.07634407846895366,1.986385801064397,10.48376823532486
0.07695483109670527,1.9835373593581602,10.505153079571123
0.0775655837244569,1.9807386981493924,10.52621803788169
0.07817633635220854,1.9779894686411765,10.546969381224855
0.07878708897996017,1.975289303574146,10.56741195903629
0.07939784160771181,1.9726378166532386,10.58754924237832
0.08000859423546343,1.9700346020587867,10.607383370258102
0.08061934686321505,1.9674792340422456,10.626915198932185
0.08123009949096668,1.9649712666066095,10.646144354019894
0.08184085211871832,1.962510233271267,10.665069285240937
0.08245160474646994,1.960095646920804,10.683687323588975
0.08306235737422157,1.9577269997370241,10.701994740748567
0.08367311000197321,1.9554037632131729,10.71998681055711
0.08428386262972484,1.9531253882491777,10.737657872312571
0.08489461525747646,1.9508913053264094,10.755001395721496
0.08550536788522808,1.9487009247603415,10.77201004728193
0.08611612051297972,1.9465536370292118,10.788675757892781
0.08672687314073135,1.9444488131766087,10.804989791478667
0.08733762576848299,1.9423858052857392,10.820942814420626
0.08794837839623461,1.940363947022909,10.836524965579477
0.08855913102398623,1.938382554247633,10.851725926701874
0.08916988365173786,1.9364409256865613,10.866534992997511
0.0897806362794895,1.9345383436683374,10.880941143677765
0.09039138890724112,1.9326740749162974,10.894933112248479
0.09100214153499275,1.9308473713958154,10.908499456350492
0.09161289416274439,1.9290574712129842,10.921628626946099
0.09222364679049602,1.9273035995612147,10.9343090366515
0.09283439941824764,1.9255849697122176,10.946529127020254
0.09344515204599926,1.9239007840477553,10.958277434586833
0.0940559046737509,1.9222502351284991,10.969542655485077
0.09466665730150253,1.9206325067962149,10.980313708460287
0.09527740992925417,1.9190467753054907,10.990579796102782
0.09588816255700579,1.9174922104811483,11.00033046413357
0.09649891518475741,1.9159679768974778,11.009555658583999
0.09710966781250904,1.9144732350753748,11.01824578071471
0.09772042044026068,1.913007142693506,11.026391739531064
0.09833117306801231,1.911568855809582,11.033985001757735
0.09894192569576393,1.9101575300878653,11.041017639145778
0.09955267832351557,1.9087723220290584,11.047482372994052
0.10016343095126719,1.907412390198751,11.053372615776363
0.10077418357901882,1.9060768964506618,11.058682509776029
0.10138493620677044,1.9047650071409694,11.063406962639435
0.10199568883452208,1.903475894330096,11.067541679770496
0.10260644146227371,1.902208736968398,11.071083193498987
0.10321719409002535,1.900962722062293,11.074028888966199
0.10382794671777695,1.8997370458174818,11.076377026682241
0.10443869934552859,1.898530914756003,11.078126761720764
0.10504945197328022,1.8973435468040127,11.079278159527597
0.10566020460103186,1.8961741723472862,11.079832208331203
0.10627095722878349,1.8950220352515863,11.079790828153902
0.10688170985653511,1.893886393845198,11.079156876433403
0.10749246248428675,1.892766521861055,11.077934150276098
0.10810321511203837,1.8916617093360846,11.076127385373434
0.10871396773979,1.8905712634655134,11.073742251623699
0.10932472036754162,1.8894945094100943,11.070785345511725
0.10993547299529326,1.888430791054362,11.067264179309934
0.11054622562304489,1.8873794717142047,11.063187167172055
0.11115697825079653,1.8863399347922425,11.058563608203388
0.11176773087854816,1.8853115843796644,11.05340366659686
0.11237848350629977,1.8842938458033818,11.047718348936112
0.1129892361340514,1.8832861661175277,11.041519478773271
0.11359998876180304,1.8822880145385514,11.034819668597736
0.11421074138955467,1.8812988828232964,11.027632289318536
0.11482149401730629,1.8803182855896905,11.019971437391035
0.11543224664505793,1.8793457605798352,11.011851899724446
0.11604299927280955,1.8783808688654633,11.003289116511688
0.11665375190056118,1.877423194995931,10.994299142129508
0.1172645045283128,1.8764723470890816,10.984898604260176
0.11787525715606444,1.87552795686548,10.975104661391065
0.11848600978381607,1.8745896796267125,10.964934958851547
0.1190967624115677,1.8736571941785807,10.954407583548273
0.11970751503931934,1.8727302027002042,10.943541017564948
0.12031826766707095,1.8718084305601712,10.932354090790206
0.12092902029482258,1.8708916260810415,10.920865932742462
0.12153977292257422,1.869979560253646,10.909095923758143
0.12215052555032585,1.8690720264027352,10.89706364571023
0.12276127817807747,1.868168839805668,10.884788832423753
0.1233720308058291,1.8672698372659642,10.872291319953945
0.12398278343358073,1.8663748766436044,10.859590996888878
0.12459353606133236,1.8654838363440995,10.846707754838667
0.125204288689084,1.8645966147684345,10.833661439268637
0.1258150413168356,1.8637131297260503,10.820471800831298
0.12642579394458725,1.8628333178131202,10.80715844734732
0.12703654657233887,1.8619571337584433,10.793740796583263
0.12764729920009052,1.8610845497393058,10.780238029966295
0.12825805182784214,1.8602155546697305,10.766669047373417
0.12886880445559376,1.8593501534635701,10.753052423127244
0.1294795570833454,1.8584883662749045,10.739406363321496
0.13009030971109703,1.8576302277182588,10.725748664598793
0.13070106233884865,1.856775786071125,10.712096674490605
0.13131181496660027,1.8559251024613221,10.698467253428095
0.13192256759435192,1.8550782500416816,10.684876738522053
0.13253332022210354,1.854235313154553,10.671340909204867
0.1331440728498552,1.853396386488615,10.657874954819947
0.13375482547760678,1.8525615742304191,10.644493444235662
0.13436557810535843,1.8517309892130867,10.631210297555585
0.13497633073311005,1.8509047520645314,10.61803875998616
0.1355870833608617,1.8500829903575235,10.604991377918411
0.13619783598861332,1.8492658377638742,10.592079977270405
0.13680858861636494,1.8484534332149507,10.579315644130613
0.13741934124411656,1.8476459200706699,10.566708707733929
0.13803009387186818,1.8468434452990572,10.5542687257954
0.13864084649961983,1.8460461586683758,10.54200447221839
0.13925159912737145,1.8452542119537634,10.529923927186092
0.1398623517551231,1.8444677581602233,10.518034269639248
0.14047310438287472,1.8436869507637452,10.506341872134165
0.14108385701062634,1.8429119429722312,10.494852298068848
0.141694609638378,1.8421428870078238,10.483570301257792
0.1423053622661296,1.841379933412132,10.472499827828974
0.14291611489388123,1.840623230375765,10.461644020410937
0.14352686752163288,1.839872923093478,10.451005224569
0.1441376201493845,1.8391291531461516,10.440584997447157
0.14474837277713615,1.8383920579107027,10.430384118562314
0.14535912540488774,1.8376617699989617,10.42040260269443
0.14596987803263936,1.8369384167264107,10.410639714809966
0.146580630660391,1.8362221196116095,10.401093986949489
0.14719138328814263,1.8355129939070185,10.39176323700797
0.14780213591589428,1.8348111481618257,10.382644589328509
0.1484128885436459,1.8341166838173062,10.373734497028698
0.14902364117139752,1.8334296948351116,10.365028765972532
0.14963439379914917,1.8327502673588163,10.356522580298076
0.1502451464269008,1.832078479408942,10.348210529408037
0.15085589905465244,1.8314144006115693,10.3400866363249
0.15146665168240406,1.8307580919605895,10.332144387313209
0.15207740431015568,1.830109605613512,10.324376762665022
0.15268815693790733,1.8294689847206915,10.316776268545526
0.15329890956565892,1.8288362632877253,10.309334969791493
0.15390966219341054,1.8282114660706967,10.3020445235553
0.1545204148211622,1.827594608503855,10.294896213685785
0.1551311674489138,1.8269856966592481,10.287880985734677
0.15574192007666546,1.8263847272377263,10.280989482479718
0.15635267270441708,1.8257916875906832,10.274212079851317
0.1569634253321687,1.8252065557718218,10.267538923154422
0.15757417795992035,1.8246293006181529,10.260959963472725
0.15818493058767197,1.8240598818593792,10.254464994146616
0.15879568321542362,1.8234982502547568,10.248043687215754
0.15940643584317524,1.8229443477564597,10.241685629718235
0.16001718847092686,1.8223981076984235,10.23538035974054
0.1606279410986785,1.8218594550095863,10.22911740211417
0.1612386937264301,1.8213283064504133,10.22288630365632
0.16184944635418172,1.8208045708715173,10.216676667855488
0.16246019898193337,1.8202881494931844,10.210478188904476
0.163070951609685,1.8197789362045462,10.204280684987507
0.16368170423743664,1.819276817881124,10.198074130729234
0.16429245686518826,1.8187816747194423,10.19184868871971
0.16490320949293988,1.8182933805873684,10.185594740030295
0.16551396212069153,1.8178118033888422,10.17930291364097
0.16612471474844315,1.8173368054416117,10.172964114703372
0.1667354673761948,1.8168682438666035,10.166569551567276
0.16734622000394642,1.8164059709875324,10.160110761503903
0.16795697263169804,1.8159498347393617,10.153579635063009
0.16856772525944969,1.815499679084208,10.14696843900573
0.16917847788720128,1.815055344433308,10.140269837760409
0.16978923051495293,1.8146166680736608,10.133476913353428
0.17039998314270455,1.8141834845979605,10.126583183771185
0.17101073577045617,1.8137556263364722,10.119582619716393
0.17162148839820782,1.8133329237894953,10.112469659725157
0.17223224102595944,1.8129152060591054,10.1052392236187
0.17284299365371106,1.8125023012788646,10.097886724266072
0.1734537462814627,1.8120940370402407,10.090408077642731
0.17406449890921433,1.8116902408144933,10.082799711172692
0.17467525153696598,1.811290740368827,10.07505857034883
0.1752860041647176,1.810895364175639,10.06718212363036
0.17589675679246922,1.8105039418137387,10.059168365622043
0.17650750942022086,1.8101163043604607,10.051015818545688
0.17711826204797246,1.80973228477362,10.042723532017618
0.1777290146757241,1.8093517182623302,10.034291081153311
0.17833976730347573,1.808974442645737,10.025718563023585
0.17895051993122735,1.8086002986987793,10.017006591491983
0.179561272558979,1.8082291304841351,10.008156290468328
0.18017202518673062,1.807860785669584,9.99916928561664
0.18078277781448224,1.807495115830045,9.990047694561758
0.18139353044223389,1.8071319767336322,9.98079411564115
0.1820042830699855,1.8067712286111226,9.971411615254446
0.18261503569773715,1.8064127364082723,9.961903713865302
0.18322578832548878,1.8060563700205128,9.952274370715214
0.1838365409532404,1.8057020045095826,9.942527967311486
0.18444729358099204,1.8053495203017413,9.932669289754218
0.18505804620874364,1.804998803367251,9.92270350997216
0.18566879883649529,1.8046497453808914,9.91263616593781
0.1862795514642469,1.8043022438633234,9.90247314093486
0.18689030409199853,1.803956202303175,9.892220641955278
0.18750105671975018,1.8036115302597997,9.88188517730246
0.1881118093475018,1.8032681434466984,9.871473533480392
0.18872256197525342,1.8029259637956665,9.860992751450182
0.18933331460300507,1.802584919501779,9.850450102334962
0.18994406723075669,1.8022449450493871,9.839853062656703
0.19055481985850833,1.8019059812193563,9.829209289188428
0.19116557248625995,1.8015679750778175,9.818526593504775
0.19177632511401158,1.8012308799467727,9.807812916316834
0.19238707774176322,1.8008946553569323,9.797076301671725
0.19299783036951482,1.800559266983214,9.786324871103792
0.19360858299726647,1.800224686563383,9.775566797816733
0.19421933562501809,1.7998908918003493,9.764810280980313
0.1948300882527697,1.7995578662486857,9.754063520221216
0.19544084088052135,1.7992255991859722,9.743334690386641
0.19605159350827298,1.7988940854695934,9.732631916658523
0.19666234613602462,1.7985633253796736,9.721963250092882
0.19727309876377624,1.7982333244488466,9.711336643658225
0.19788385139152787,1.7979040932795955,9.70075992884285
0.1984946040192795,1.7975756473499207,9.690240792900074
0.19910535664703113,1.7972480068081247,9.679786756796764
0.19971610927478275,1.796921196257509,9.669405153926927
0.20032686190253438,1.7965952445318194,9.659103109651102
0.200937614530286,1.7962701844622622,9.648887521716455
0.20154836715803764,1.795946052636956,9.63876504161163
0.20215911978578927,1.7956228891536725,9.62874205690486
0.20276987241354089,1.7953007373667367,9.618824674610872
0.20338062504129253,1.7949796436289551,9.609018705629312
0.20399137766904415,1.7946596570294546,9.599329650292006
0.2046021302967958,1.794340829128292,9.589762685052792
0.20521288292454742,1.7940232136887144,9.580322650351622
0.20582363555229904,1.793706866407925,9.571014039676431
0.2064343881800507,1.793391844647214,9.561840989847282
0.2070451408078023,1.7930782071622875,9.552807272538562
0.2076558934355539,1.792766013834635,9.543916287053696
0.20826664606330555,1.7924553254047348,9.53517105436201
0.20887739869105718,1.7921462032078959,9.526574212401911
0.20948815131880882,1.79183870891351,9.518128012653381
0.21009890394656044,1.7915329042684633,9.50983431797492
0.21070965657431207,1.791228850845425,9.50169460169915
0.2113204092020637,1.7909266097967222,9.493709947976047
0.21193116182981533,1.7906262416144625,9.485881053348363
0.21254191445756698,1.7903278058975458,9.478208229541462
0.2131526670853186,1.7900313611261764,9.470691407444612
