frequency,refractiveIndex,absorption
0.0006107526277516292,2.395671344439847,0.0017694176754732753
0.0012215052555032584,2.395460966730845,0.007074600781713574
0.0018322578832548875,2.3951107042900377,0.015906352087279838
0.002443010511006517,2.3946211058705664,0.02824938453282816
0.003053763138758146,2.393992936028831,0.04408238335838158
0.003664515766509775,2.3932271714689533,0.06337809236245423
0.004275268394261404,2.3923249964026425,0.08610342358695375
0.004886021022013034,2.3912877969681294,0.11221958953805027
0.005496773649764663,2.3901171547599604,0.1416822568827331
0.006107526277516292,2.3888148395290654,0.17444172040528777
0.006718278905267922,2.3873828011190246,0.21044309586981688
0.00732903153301955,2.3858231607100837,0.24962653031549173
0.00793978416077118,2.3841382014470134,0.2919274282115741
0.008550536788522809,2.3823303585305666,0.33727669182036535
0.009161289416274438,2.380402208854527,0.38560097405793237
0.009772042044026067,2.3783564602719114,0.43682294210547895
0.010382794671777697,2.3761959405740534,0.49086155000699455
0.010993547299529326,2.373923586265757,0.5476323184917719
0.011604299927280955,2.371542431218003,0.607047620281151
0.012215052555032585,2.369055595277315,0.6690169691774308
0.012825805182784214,2.3664662729075587,0.7334473112861584
0.013436557810535843,2.3637777219361182,0.8002433167908206
0.014047310438287471,2.360993252471819,0.8693076707780928
0.0146580630660391,2.358116216056986,0.9405413617011597
0.015268815693790731,2.3551499951107386,1.0138439661661407
0.01587956832154236,2.352097992714919,1.0891139288299934
0.01649032094929399,2.3489636227882413,1.1662488363060846
0.017101073577045618,2.3457503006884055,1.245145684083868
0.01771182620479725,2.3424614342759793,1.3257011355803616
0.018322578832548876,2.33910041546804,1.4078117725513728
0.018933331460300507,2.3356706123039417,1.491374336199248
0.019544084088052135,2.332175361540047,1.5762859584190114
0.020154836715803762,2.3286179617850804,1.6624443827260413
0.020765589343555393,2.3250016671829568,1.7497481745049086
0.02137634197130702,2.3213296816451177,1.838096920308967
0.021987094599058652,2.317605153630509,1.9273914160252226
0.02259784722681028,2.3138311714672204,2.0175338437966004
0.02320859985456191,2.3100107592065102,2.108427937664836
0.023819352482313542,2.3061468729967594,2.1999791379615274
0.02443010511006517,2.302242397962258,2.292094734532281
0.025040857737816797,2.2983001455693697,2.384683998930165
0.025651610365568428,2.294322851460629,2.4776583057579384
0.026262362993320056,2.290313173735726,2.5709312433777964
0.026873115621071687,2.2862736916570148,2.6644187142389697
0.027483868248823314,2.2822069047561166,2.7580390251001456
0.028094620876574942,2.278115232317568,2.8517129674455264
0.028705373504326573,2.2740010132148893,2.9453638884103612
0.0293161261320782,2.2698665060742482,3.03891775254382
0.029926878759829835,2.2657138897408733,3.1323031947465045
0.030537631387581463,2.2615452640234883,3.225451564725003
0.03114838401533309,2.2573626506924014,3.318296963308077
0.03175913664308472,2.2531679947073173,3.4107762709693614
0.03236988927083635,2.2489631656514986,3.5028291688983977
0.03298064189858798,2.244749959349665,3.594398152958108
0.03359139452633961,2.2405300996477,3.6854285408603817
0.034202147154091235,2.236305240333151,3.7758684728851497
0.03481289978184286,2.2320769671763485,3.8656689064592835
0.0354236524095945,2.2278468000729603,3.9547836049039713
0.036034405037346125,2.223616195269727,4.04316912064938
0.03664515766509775,2.2193865476561214,4.1307847732059235
0.03725591029284938,2.215159193105687,4.217592622172338
0.037866662920601014,2.2109354108517945,4.303557435550616
0.038477415548352635,2.2067164258835392,4.388646653628863
0.03908816817610427,2.2025034113485384,4.472830348683928
0.039698920803855904,2.198297490950246,4.556081180746499
0.040309673431607525,2.194099741328488,4.638374349663888
0.04092042605935916,2.1899111944127045,4.719687543686314
0.04153117868711079,2.1857328397383857,4.800000884796927
0.04214193131486242,2.181565626717975,4.879296870997375
0.04275268394261404,2.1774104668584116,4.957560315754927
0.04336343657036568,2.173268235918222,5.034778284811743
0.043974189198117304,2.1691397759979196,5.110940030550606
0.04458494182586893,2.1650258975580874,5.186036924107347
0.04519569445362056,2.160927381360383,5.260062385415723
0.045806447081372194,2.156844980327216,5.333011811366171
0.04641719970912382,2.152779421316598,5.404882502256663
0.04702795233687545,2.1487314068092074,5.475673586710946
0.047638704964627084,2.1447016165053183,5.545385945235846
0.048249457592378704,2.1406907088297893,5.614022132588364
0.04886021022013034,2.1366993223437434,5.681586299118256
0.049470962847881966,2.1327280770622115,5.7480841112534105
0.050081715475633594,2.128777575677276,5.81352267128992
0.05069246810338522,2.1248484046868303,5.877910436649193
0.051303220731136856,2.1209411354293892,5.941257138761684
0.05191397335888848,2.117056325025779,6.003573701735731
0.05252472598664011,2.1131945172289015,6.0648721609677345
0.053135478614391746,2.1093562431830386,6.12516558184836
0.05374623124214337,2.105542022094557,6.1844679787181365
0.054356983869895,2.1017523618160356,6.242794234223151
0.05496773649764663,2.0979877593461955,6.3001600192201375
0.05557848912539826,2.094248701248168,6.356581713377127
0.056189241753149884,2.090535663988916,6.4120763266151455
0.05679999438090152,2.0868491142027517,6.466661421531739
0.057410747008653146,2.0831895088821404,6.520355036946188
0.05802149963640477,2.079557295499052,6.573175612701788
0.0586322522641564,2.0759529120603286,6.625141915858243
0.059243004891908035,2.072376787100629,6.676272968403177
0.05985375751965967,2.068829339616588,6.726587976608315
0.06046451014741129,2.0653109789459676,6.776106262151023
0.061075262775162925,2.0618221045955964,6.824847195118973
0.06168601540291455,2.058363106021961,6.872830129009332
0.06229676803066618,2.0549343623683933,6.920074337830437
0.0629075206584178,2.0515362421627286,6.966598955408199
0.06351827328616944,2.048169102979429,7.012422916993403
0.06412902591392107,2.0448332910700873,7.0575649032621826
0.0647397785416727,2.0415291409662273,7.102043286794111
0.06535053116942433,2.0382569750583217,7.145876081107734
0.06596128379717596,2.0350171031548476,7.18908089232583
0.0665720364249276,2.0318098220252137,7.231674873537926
0.06718278905267921,2.0286354149302808,7.273674681918519
0.06779354168043085,2.025494151144147,7.315096438655296
0.06840429430818247,2.0223862854707924,7.355955691732575
0.06901504693593409,2.0193120577590746,7.396267381609279
0.06962579956368573,2.016271692419449,7.436045809823283
0.07023655219143736,2.013265397945748,7.475304610546732
0.070847304819189,2.0102933664451488,7.514056725109798
0.07145805744694061,2.007355773179392,7.552314379502637
0.07206881007469225,2.0044527761201936,7.590089064858822
0.07267956270244387,2.001584515521614,7.627391520915197
0.0732903153301955,1.9987511135120413,7.664231722436398
0.07390106795794714,1.9959526737083058,7.700618868585666
0.07451182058569876,1.9931892808542688,7.73656137521495
0.0751225732134504,1.9904610004860979,7.7720668700416615
0.07573332584120203,1.9877678786262956,7.8071421906720895
0.07634407846895366,1.9851099415083469,7.841793385424346
0.07695483109670527,1.9824871953337544,7.876025716897802
0.0775655837244569,1.979899626063026,7.909843668229057
0.07817633635220854,1.9773471992420204,7.943250951968053
0.07878708897996017,1.9748298598649365,7.976250521503135
0.07939784160771181,1.9723475322750093,8.008844584956355
0.08000859423546343,1.9699001201038606,8.04103462146616
0.08061934686321505,1.967487506250286,8.07282139976873
0.08123009949096668,1.9651095528990827,8.104204998984423
0.08184085211871832,1.9627661015803866,8.135184831510939
0.08245160474646994,1.960456973269809,8.165759667920039
0.08306235737422157,1.958181968529553,8.195927663751863
0.08367311000197321,1.9559408676905001,8.225686388095514
0.08428386262972484,1.9537334310751229,8.255032853841975
0.08489461525747646,1.9515593992609555,8.283963549492034
0.08550536788522808,1.9494184933842025,8.312474472399465
0.08611612051297972,1.94731041548293,8.340561163326552
0.08672687314073135,1.9452348488791515,8.368218742187645
0.08733762576848299,1.9431914585990375,8.395441944854282
0.08794837839623461,1.9411798918302796,8.422225160894316
0.08855913102398623,1.9391997784156239,8.448562472115716
0.08916988365173786,1.9372507313813643,8.474447691785915
0.0897806362794895,1.9353323474996305,8.499874404396854
0.09039138890724112,1.9334442078830512,8.524836005845811
0.09100214153499275,1.9315858786103963,8.549325743901777
0.09161289416274439,1.9297569113816704,8.573336758830031
0.09222364679049602,1.9279568442010535,8.59686212404537
0.09283439941824764,1.9261852020860133,8.619894886668654
0.09344515204599926,1.9244414978008526,8.64242810786137
0.0940559046737509,1.922725232612889,8.664454902815773
0.09466665730150253,1.9210358970694101,8.68596848027944
0.09527740992925417,1.919372971793488,8.706962181496953
0.09588816255700579,1.9177359282967317,8.727429518453445
0.09649891518475741,1.9161242298069696,8.747364211308561
0.09710966781250904,1.9145373321088492,8.766760224911426
0.09772042044026068,1.9129746843953432,8.785611804293614
0.09833117306801231,1.9114357301280704,8.803913509037686
0.09894192569576393,1.9099199079043978,8.821660246426605
0.09955267832351557,1.908426652329223,8.838847303280312
0.10016343095126719,1.9069553948893965,8.855470376393587
0.10077418357901882,1.9055055648286805,8.8715256014916
0.10138493620677044,1.904076590021227,8.887009580626327
0.10199568883452208,1.9026678978415086,8.901919407941403
0.10260644146227371,1.9012789160287016,8.916252693738292
0.10321719409002535,1.899909073543534,8.930007586783024
0.10382794671777695,1.8985578014156277,8.94318279479684
0.10443869934552859,1.8972245335794486,8.955777603081998
0.10504945197328022,1.8959087076969567,8.967791891237628
0.10566020460103186,1.8946097659651446,8.979226147927637
0.10627095722878349,1.8933271559066989,8.990081483669611
0.10688170985653511,1.8920603311420447,9.000359641616722
0.10749246248428675,1.890808752141124,9.010063006314441
0.10810321511203837,1.889571886953322,9.019194610417177
0.10871396773979,1.8883492119139866,9.027758139357374
0.10932472036754162,1.8871402123261167,9.035757933965119
0.10993547299529326,1.8859443831158165,9.043198991043356
0.11054622562304489,1.8847612294602185,9.050086961908114
0.11115697825079653,1.8835902673866491,9.0564281489108
0.11176773087854816,1.8824310243418962,9.062229499964458
0.11237848350629977,1.8812830397305365,9.067498601102203
0.1129892361340514,1.8801458654213226,9.072243667100743
0.11359998876180304,1.8790190662207928,9.07647353020928
0.11421074138955467,1.8779022203132847,9.080197627027028
0.11482149401730629,1.876794919666672,9.083425983579874
0.11543224664505793,1.8756967704032257,9.086169198650536
0.11604299927280955,1.8746073931350862,9.088438425421945
0.11665375190056118,1.873526423263941,9.09024535149785
0.1172645045283128,1.872453511244588,9.09160217736943
0.11787525715606444,1.8713883228121693,9.092521593400264
0.11848600978381607,1.870330539172947,9.093016755407085
0.1190967624115677,1.8692798571585985,9.093101258916146
0.11970751503931934,1.8682359893440796,9.0927891121789
0.12031826766707095,1.8671986641292402,9.092094708034612
0.12092902029482258,1.8661676257844113,9.091032794708845
0.12153977292257422,1.8651426344603292,9.08961844564087
0.12215052555032585,1.864123466162812,9.0878670284342
0.12276127817807747,1.8631099126927073,9.085794173026969
0.1233720308058291,1.8621017815517171,9.08341573918078
0.12398278343358073,1.8610988958147663,9.08074778338655
0.12459353606133236,1.8601010939697011,9.077806525289398
0.125204288689084,1.8591082297251238,9.074608313732634
0.1258150413168356,1.85812017178731,9.071169592523503
0.12642579394458725,1.8571368036071565,9.067506866021684
0.12703654657233887,1.8561580230982273,9.06363666465276
0.12764729920009052,1.8551837423270081,9.059575510447425
0.12825805182784214,1.8542138871765192,9.055339882706239
0.12886880445559376,1.853248396984537,9.050946183889623
0.1294795570833454,1.85228722415768,9.046410705830104
0.13009030971109703,1.8513303337626874,9.041749596362463
0.13070106233884865,1.8503777030962572,9.036978826466903
0.13131181496660027,1.8494293212348425,9.032114158014256
0.13192256759435192,1.8484851885658369,9.027171112204666
0.13253332022210354,1.8475453163016262,9.022164938784618
0.1331440728498552,1.8466097259779868,9.017110586125394
0.13375482547760678,1.8456784489383378,9.012022672243148
0.13436557810535843,1.8447515258053824,9.006915456836643
0.13497633073311005,1.8438290059416664,9.001802814415877
0.1355870833608617,1.842910946900595,8.99669820858952
0.13619783598861332,1.8419974138694586,8.991614667576373
0.13680858861636494,1.8410884791060078,8.986564761002002
0.13741934124411656,1.8401842213701092,8.981560578035376
0.13803009387186818,1.8392847253520133,8.976613706918876
0.13864084649961983,1.8383900810987357,8.971735215937661
0.13925159912737145,1.8375003834400538,8.96693563587187
0.1398623517551231,1.836615731415573,8.962224943968428
0.14047310438287472,1.8357362277043205,8.957612549467132
0.14108385701062634,1.8348619780582605,8.953107280707627
0.141694609638378,1.833993090741119,8.948717373841387
0.1423053622661296,1.8331296759738622,8.944450463167222
0.14291611489388123,1.8322718453881188,8.940313573104406
0.14352686752163288,1.8314197114888076,8.936313111810328
0.1441376201493845,1.830573387127198,8.93245486644963
0.14474837277713615,1.829732984985536,8.928744000111147
0.14535912540488774,1.828898617074387,8.925185050368974
0.14596987803263936,1.8280703942437304,8.92178192947719
0.146580630660391,1.8272484257088224,8.918537926182502
0.14719138328814263,1.826432818591785,8.915455709137962
0.14780213591589428,1.8256236774797951,8.912537331891434
0.1484128885436459,1.8248211040007334,8.909784239423583
0.14902364117139752,1.8240251964170464,8.907197276202872
0.14963439379914917,1.8232360492385473,8.904776695721138
0.1502451464269008,1.8224537528547988,8.902522171471649
0.15085589905465244,1.8216783931876706,8.900432809325348
0.15146665168240406,1.820910051364599,8.898507161259696
0.15207740431015568,1.8201488034130102,8.896743240389869
0.15268815693790733,1.8193947199763048,8.895138537249744
0.15329890956565892,1.8186478660517418,8.89369003726596
0.15390966219341054,1.8179083007505048,8.892394239367789
0.1545204148211622,1.817176077080149,8.891247175671003
0.1551311674489138,1.8164512417495946,8.89024443217187
0.15574192007666546,1.8157338349967485,8.889381170387376
0.15635267270441708,1.815023890438785,8.888652149871433
0.1569634253321687,1.814321434945074,8.888051751541434
0.15757417795992035,1.813626488532644,8.887574001740617
0.15818493058767197,1.812939064284071,8.887212596967464
0.15879568321542362,1.81225916828757,8.886960929196572
0.15940643584317524,1.8115867995990615,8.88681211171844
0.16001718847092686,1.8109219502259035,8.886759005422473
0.1606279410986785,1.8102646051319342,8.886794245448225
0.1612386937264301,1.8096147422634457,8.886910268129984
0.16184944635418172,1.8089723325956164,8.887099338156979
0.16246019898193337,1.8083373401989475,8.887353575876828
0.163070951609685,1.8077097223251393,8.887664984663624
0.16368170423743664,1.8070894295118591,8.888025478277987
0.16429245686518826,1.806476405705786,8.888426908144385
0.16490320949293988,1.8058705884032735,8.888861090472277
0.16551396212069153,1.8052719088079743,8.889319833148875
0.16612471474844315,1.8046802920046936,8.889794962332573
0.1667354673761948,1.8040956571487397,8.890278348677318
0.16734622000394642,1.8035179176700045,8.890761933120023
0.16795697263169804,1.8029469814909789,8.89123775216408
0.16856772525944969,1.8023827512578794,8.891697962595154
0.16917847788720128,1.8018251245840617,8.892134865565804
0.16978923051495293,1.8012739943048541,8.89254092998932
0.17039998314270455,1.8007292487429474,8.89290881518446
0.17101073577045617,1.8001907719834513,8.893231392714702
0.17162148839820782,1.799658444157719,8.893501767369633
0.17223224102595944,1.7991321417350448,8.893713297238554
0.17284299365371106,1.7986117378212998,8.893859612825812
0.1734537462814627,1.79809710246362,8.893934635167154
0.17406449890921433,1.7975881029601912,8.893932592901395
0.17467525153696598,1.7970846041742377,8.893848038260947
0.1752860041647176,1.7965864688512796,8.893675861944411
0.17589675679246922,1.7960935579387536,8.893411306839553
0.17650750942022086,1.7956057309070816,8.893049980567142
0.17711826204797246,1.7951228460712898,8.892587866819495
0.1777290146757241,1.7946447609122875,8.892021335472101
0.17833976730347573,1.794171332396926,8.891347151449118
0.17895051993122735,1.793702417295977,8.890562482327297
0.179561272558979,1.7932378724991789,8.889664904666288
0.18017202518673062,1.7927775553265204,8.888652409057094
0.18078277781448224,1.7923213238349551,8.887523403884028
0.18139353044223389,1.7918690371197612,8.886276717799324
0.1820042830699855,1.7914205556097662,8.884911600911071
0.18261503569773715,1.790975741355717,8.883427724692384
0.18322578832548878,1.7905344583110694,8.881825180619927
0.1838365409532404,1.7900965726045104,8.880104477555136
0.18444729358099204,1.7896619528035633,8.878266537883492
0.18505804620874364,1.7892304701686532,8.87631269243324
0.18566879883649529,1.7888019988970267,8.874244674194689
0.1862795514642469,1.788376416355988,8.872064610867447
0.18689030409199853,1.7879536033049042,8.869775016264848
0.18750105671975018,1.78753344410551,8.86737878060737
0.1881118093475018,1.7871158269200496,8.864879159741358
0.18872256197525342,1.7867006438968507,8.862279763321714
0.18933331460300507,1.7862877913429407,8.85958454199795
0.18994406723075669,1.7858771698833873,8.856797773649745
0.19055481985850833,1.7854686846070542,8.853924048716307
0.19116557248625995,1.7850622451985192,8.850968254669722
0.19177632511401158,1.784657766055941,8.847935559682673
0.19238707774176322,1.7842551663947,8.84483139554309
0.19299783036951482,1.7838543703366763,8.841661439872173
0.19360858299726647,1.7834553069850796,8.838431597700682
0.19421933562501809,1.7830579104847724,8.835147982463472
0.1948300882527697,1.7826621200680812,8.83181689647154
0.19544084088052135,1.7822678800861287,8.828444810921695
0.19605159350827298,1.7818751400257515,8.825038345508323
0.19666234613602462,1.7814838545121194,8.821604247697051
0.19727309876377624,1.7810939832972068,8.818149371727467
0.19788385139152787,1.7807054912343003,8.814680657405502
0.1984946040192795,1.7803183482387788,8.811205108753684
0.19910535664703113,1.7799325292354122,8.807729772580315
0.19971610927478275,1.779548014092501,8.804261717035203
0.20032686190253438,1.7791647875431662,8.800808010213228
0.200937614530286,1.7787828390941764,8.797375698872434
0.20154836715803764,1.7784021629226996,8.793971787327244
0.20215911978578927,1.7780227577614072,8.790603216580356
0.20276987241354089,1.777644626772403,8.787276843754395
0.20338062504129253,1.777267777410443,8.78399942188256
0.20399137766904415,1.7768922212759761,8.78077758011758
0.2046021302967958,1.7765179739585288,8.777617804415627
0.20521288292454742,1.7761450548709965,8.774526418749948
0.20582363555229904,1.7757734870754216,8.771509566908108
0.2064343881800507,1.7754032971008509,8.76857319492401
0.2070451408078023,1.7750345147538864,8.765723034192693
0.2076558934355539,1.7746671729225607,8.762964585316183
0.20826664606330555,1.7743013073741738,8.760303102722878
0.20887739869105718,1.773936956547737,8.757743580103254
0.20948815131880882,1.773574161341698,8.75529073669926
0.21009890394656044,1.7732129648975956,8.752949004485444
0.21070965657431207,1.7728534123803201,8.750722516272544
0.2113204092020637,1.7724955507556543,8.748615094765054
0.21193116182981533,1.7721394285657635,8.746630242599466
0.21254191445756698,1.7717850957033003,8.744771133386289
0.2131526670853186,1.7714326031847984,8.743040603777818
0.21376341971307022,1.7710820029240077,8.741441146577115
0.21437417234082187,1.7707333475058278,8.739974904904333
