frequency,refractiveIndex,absorption
0.0006107526277516292,2.862627860304123,0.005510106486781965
0.0012215052555032584,2.8612127250801267,0.0220066897031769
0.0018322578832548875,2.858864689308692,0.04938915579915938
0.002443010511006517,2.8555993194904574,0.08749187390764682
0.003053763138758146,2.8514379820718934,0.13608713191309213
0.003664515766509775,2.8464074374911097,0.19488911515265925
0.004275268394261404,2.84053934620705,0.2635587614550102
0.004886021022013034,2.8338697050688544,0.3417093208259427
0.005496773649764663,2.8264382338837537,0.4289124332462248
0.006107526277516292,2.8182877324087587,0.5247045335461992
0.006718278905267922,2.8094634273118273,0.6285933974307091
0.00732903153301955,2.8000123270828627,0.7400646560551836
0.00793978416077118,2.789982600632226,0.8585881262695316
0.008550536788522809,2.779422992623903,0.9836238277146038
0.009161289416274438,2.768382285677981,1.1146275843498155
0.009772042044026067,2.756908816646083,1.251056134866088
0.010382794671777697,2.7450500513811105,1.392371702254681
0.010993547299529326,2.732852219914297,1.538045996387146
0.011604299927280955,2.7203600117989097,1.6875636440226631
0.012215052555032585,2.707616329622899,1.8404250577636636
0.012825805182784214,2.694662097338789,1.9961487689997612
0.013436557810535843,2.6815361190900413,2.1542732599284706
0.014047310438287471,2.668274983591173,2.314358336605108
0.0146580630660391,2.6549130087962047,2.4759860890478134
0.015268815693790731,2.641482221513735,2.638761486159671
0.01587956832154236,2.6280123667436674,2.802312653084822
0.01649032094929399,2.614530941771037,2.9662908770319816
0.017101073577045618,2.6010632504123024,3.130370384973308
0.01771182620479725,2.5876324732311016,3.2942479333042676
0.018322578832548876,2.5742597499933866,3.457642245817425
0.018933331460300507,2.560964271091916,3.6202933324310216
0.019544084088052135,2.547763375119256,3.7819617171971545
0.020154836715803762,2.5346726501941967,3.9424276003264582
0.020765589343555393,2.52170603704027,4.101489975395464
0.02137634197130702,2.5088759321720175,4.258965719607433
0.021987094599058652,2.4961932898630197,4.414688671991022
0.02259784722681028,2.483667721848729,4.568508711752883
0.02320859985456191,2.4713075939589686,4.720290846651248
0.023819352482313542,2.4591201190812417,4.869914319212566
0.02443010511006517,2.4471114460299948,5.017271736853648
0.025040857737816797,2.4352867440418935,5.162268230475303
0.025651610365568428,2.4236502827361077,5.3048206448315725
0.026262362993320056,2.4122055074749533,5.444856762928811
0.026873115621071687,2.40095511013713,5.582314565843417
0.027483868248823314,2.389901095375777,5.717141528641922
0.028094620876574942,2.379044842479636,5.849293952521667
0.028705373504326573,2.3683871629896465,5.978736332841376
0.0293161261320782,2.35792835424771,6.105440762364024
0.029926878759829835,2.347668249070598,6.229386368769016
0.030537631387581463,2.3376062617517803,6.3505587852961725
0.03114838401533309,2.327741430598566,6.468949653246684
0.03175913664308472,2.318072457212398,6.584556154974865
0.03236988927083635,2.308597742717421,6.697380575951359
0.03298064189858798,2.2993154211373903,6.807429894455115
0.03359139452633961,2.2902233901140185,6.914715397451735
0.034202147154091235,2.2813193391517768,7.019252321233971
0.03481289978184286,2.2726007755650928,7.121059515432372
0.0354236524095945,2.2640650482944875,7.220159129046468
0.036034405037346125,2.255709369748375,7.316576317195839
0.03664515766509775,2.2475308358175488,7.410338967344685
0.03725591029284938,2.2395264441997456,7.50147744381064
0.037866662920601014,2.231693111162297,7.590024349425948
0.038477415548352635,2.2240276868618802,7.676014303278622
0.03908816817610427,2.2165269693317504,7.759483733517716
0.039698920803855904,2.209187717238656,7.840470684263804
0.040309673431607525,2.202006661503973,7.919014635719884
0.04092042605935916,2.1949805158763147,7.995156336630233
0.04153117868711079,2.1881059865362,8.068937648284503
0.04214193131486242,2.1813797808070103,8.140401399312067
0.04275268394261404,2.1747986150407295,8.209591250556393
0.04336343657036568,2.1683592217414964,8.276551569361722
0.043974189198117304,2.1620583559851414,8.341327312644607
0.04458494182586893,2.1558928011881906,8.40396391816085
0.04519569445362056,2.1498593742757284,8.464507203413806
0.045806447081372194,2.1439549302935825,8.52300327168372
0.04641719970912382,2.138176366506818,8.579498424689882
0.04702795233687545,2.132520626023214,8.634039081426883
0.047638704964627084,2.126984700977547,8.686671702745219
0.048249457592378704,2.121565635309664,8.737442721272572
0.04886021022013034,2.116260527166944,8.786398476297979
0.049470962847881966,2.111066530959438,8.833585153265286
0.050081715475633594,2.105980859093893,8.879048727544848
0.05069246810338522,2.101000783410985,8.922834912174407
0.051303220731136856,2.0961236363483216,8.964989109280685
0.05191397335888848,2.0913468118501997,9.005556364913229
0.05252472598664011,2.0866677660436195,9.044581327040659
0.053135478614391746,2.082084017698715,9.082108206477
0.05374623124214337,2.077593148490547,9.11818074052434
0.054356983869895,2.073192803078024,9.152842159132128
0.05496773649764663,2.068880689014713,9.186135153391444
0.05557848912539826,2.064654576505303,9.218101846195188
0.056189241753149884,2.0605122980206283,9.24878376491125
0.05679999438090152,2.0564517477832633,9.278221815927106
0.057410747008653146,2.052470881135047,9.306456260938953
0.05802149963640477,2.04856771379707,9.333526694869212
0.0586322522641564,2.0447403210320854,9.359472025308058
0.059243004891908035,2.0409868367186426,9.384330453385607
0.05985375751965967,2.0373054523457115,9.408139455991172
0.06046451014741129,2.0336944159360004,9.430935769265592
0.061075262775162925,2.0301520309057053,9.452755373301853
0.06168601540291455,2.026676654867937,9.473633477996572
0.06229676803066618,2.0232666983866774,9.493604510003792
0.0629075206584178,2.019920623687659,9.512702100748736
0.06351827328616944,2.0166369433322444,9.530959075465532
0.06412902591392107,2.0134142188599653,9.548407443230175
0.0647397785416727,2.0102510594050824,9.565078387963432
0.06535053116942433,2.007146120292202,9.581002260385107
0.06596128379717596,2.004098101615675,9.59620857090384
0.0665720364249276,2.0011057468072355,9.610725983431982
0.06718278905267921,1.9981678411960728,9.624582310116924
0.06779354168043085,1.9952832105652467,9.63780450698421
0.06840429430818247,1.9924507197081711,9.650418670489966
0.06901504693593409,1.9896692709886141,9.662450034981863
0.06962579956368573,1.9869378029074536,9.67392297106956
0.07023655219143736,1.9842552886792657,9.684860984907337
0.070847304819189,1.981620734821562,9.695286718391312
0.07145805744694061,1.9790331797593563,9.705221950275657
0.07206881007469225,1.9764916924475293,9.71468759821075
0.07267956270244387,1.9739953710133178,9.723703721707903
0.0732903153301955,1.9715433414210584,9.732289526033004
0.07390106795794714,1.9691347561611785,9.740463367032305
0.07451182058569876,1.9667687929652853,9.748242756892191
0.0751225732134504,1.9644446535490274,9.755644370833005
0.07573332584120203,1.9621615623842874,9.762684054737099
0.07634407846895366,1.959918765502129,9.769376833708092
0.07695483109670527,1.9577155293277821,9.775736921558783
0.0775655837244569,1.955551139548822,9.781777731221204
0.07817633635220854,1.9534249000176023,9.78751188607221
0.07878708897996017,1.951336131688845,9.792951232165107
0.07939784160771181,1.9492841715932214,9.798106851356005
0.08000859423546343,1.947268371847616,9.802989075311933
0.08061934686321505,1.9452880987026746,9.80760750038438
0.08123009949096668,1.9433427316281418,9.811971003331589
0.08184085211871832,1.9414316624363828,9.816087757869164
0.08245160474646994,1.939554294444393,9.819965252027014
0.08306235737422157,1.9377100416745292,9.823610306288806
0.08367311000197321,1.9358983280940572,9.827029092487079
0.08428386262972484,1.9341185868935982,9.830227153426282
0.08489461525747646,1.9323702598044032,9.833209423202584
0.08550536788522808,1.9306527964543598,9.835980248188154
0.08611612051297972,1.9289656537625286,9.83854340864613
0.08672687314073135,1.9273082953719463,9.840902140938866
0.08733762576848299,1.925680191120372,9.843059160292455
0.08794837839623461,1.9240808165485601,9.845016684077102
0.08855913102398623,1.9225096524456131,9.846776455562459
0.08916988365173786,1.9209661844308683,9.848339768104577
0.0897806362794895,1.919449902571765,9.849707489720718
0.09039138890724112,1.9179603010370285,9.850880088006555
0.09100214153499275,1.9164968777844913,9.851857655348375
0.09161289416274439,1.9150591342828098,9.85263993438339
0.09222364679049602,1.9136465752662954,9.853226343659275
0.09283439941824764,1.912258708522015,9.853616003443008
0.09344515204599926,1.9108950447083022,9.853807761629705
0.0940559046737509,1.9095550972037512,9.85380021969984
0.09466665730150253,1.9082383819857622,9.853591758674717
0.09527740992925417,1.90694441753763,9.853180565017842
0.09588816255700579,1.9056727247831868,9.852564656431413
0.09649891518475741,1.9044228270479326,9.85174190749592
0.09710966781250904,1.9031942500455934,9.850710075101333
0.09772042044026068,1.9019865218890049,9.849466823618958
0.09833117306801231,1.900799173124208,9.848009749762614
0.09894192569576393,1.8996317367866131,9.846336407089206
0.09955267832351557,1.8984837484780785,9.844444330088402
0.10016343095126719,1.8973547464637337,9.84233105781289
0.10077418357901882,1.8962442717873613,9.839994157000548
0.10138493620677044,1.8951518684041455,9.837431244641953
0.10199568883452208,1.8940770833295795,9.834640009946739
0.10260644146227371,1.8930194668033271,9.831618235664143
0.10321719409002535,1.8919785724668234,9.828363818714756
0.10382794671777695,1.8909539575533945,9.824874790090908
0.10443869934552859,1.8899451830896934,9.821149333986016
0.10504945197328022,1.8889518141072235,9.817185806114052
0.10566020460103186,1.8879734198627542,9.812982751182235
0.10627095722878349,1.8870095740664221,9.808538919482753
0.10688170985653511,1.8860598551163248,9.803853282570024
0.10749246248428675,1.8851238463384279,9.798925047993462
0.10810321511203837,1.8842011362306184,9.793753673056866
0.10871396773979,1.8832913187097402,9.788338877579193
0.10932472036754162,1.8823939933604943,9.782680655631744
0.10993547299529326,1.8815087656850704,9.776779286232403
0.11054622562304489,1.8806352473524177,9.770635342976018
0.11115697825079653,1.8797730564460926,9.764249702587355
0.11176773087854816,1.8789218177096176,9.757623552381595
0.11237848350629977,1.8780811627883516,9.750758396622274
0.1129892361340514,1.8772507304668604,9.743656061769295
0.11359998876180304,1.8764301669008476,9.736318700611479
0.11421074138955467,1.8756191258426977,9.728748795281739
0.11482149401730629,1.874817268859756,9.72094915915588
0.11543224664505793,1.8740242655444752,9.71292293763778
0.11604299927280955,1.8732397937156227,9.704673607839004
0.11665375190056118,1.8724635396097487,9.696204977160352
0.1172645045283128,1.8716951980622054,9.687521180789224
0.11787525715606444,1.87093447267699,9.678626678127161
0.11848600978381607,1.8701810759847826,9.669526248165297
0.1190967624115677,1.869434729588556,9.660224983829261
0.11970751503931934,1.8686951642962035,9.650728285316143
0.12031826766707095,1.8679621202396683,9.641041852450106
0.12092902029482258,1.867235346980101,9.631171676085023
0.12153977292257422,1.8665146035986397,9.621124028586198
0.12215052555032585,1.8657996587724266,9.610905453423314
0.12276127817807747,1.8650902908355589,9.60052275391232
0.1233720308058291,1.8643862878246946,9.589982981143468
0.12398278343358073,1.863687447509095,9.57929342113611
0.12459353606133236,1.8629935774049418,9.568461581262758
0.125204288689084,1.8623044947738057,9.557495175986379
0.1258150413168356,1.8616200266052036,9.546402111957576
0.12642579394458725,1.8609400095832256,9.53519047251822
0.12703654657233887,1.8602642900372641,9.523868501661775
0.12764729920009052,1.8595927238769305,9.512444587499783
0.12825805182784214,1.8589251765112822,9.50092724528624
0.12886880445559376,1.8582615227525472,9.489325100052755
0.1294795570833454,1.8576016467045595,9.47764686890736
0.13009030971109703,1.8569454416361806,9.46590134305093
0.13070106233884865,1.856292809840019,9.4540973695664
0.13131181496660027,1.8556436624767985,9.442243833034329
0.13192256759435192,1.854997919405769,9.430349637030838
0.13253332022210354,1.8543555090016048,9.418423685562445
0.1331440728498552,1.8537163679582476,9.40647486449219
0.13375482547760678,1.8530804410802062,9.394512023011794
0.13436557810535843,1.852447681061857,9.382543955213867
0.13497633073311005,1.8518180482553084,9.370579381816281
0.1355870833608617,1.8511915104274304,9.358626932092426
0.13619783598861332,1.8505680425066764,9.346695126057101
0.13680858861636494,1.8499476263203514,9.334792356959703
0.13741934124411656,1.849330250322989,9.322926874131934
0.13803009387186818,1.848715909316536,9.311106766238563
0.13864084649961983,1.8481046041630536,9.299339944976857
0.13925159912737145,1.8474963414906564,9.287634129267724
0.1398623517551231,1.8468911333934215,9.2759968299826
0.14047310438287472,1.846288997126022,9.264435335244679
0.14108385701062634,1.845689954793829,9.25295669634418
0.141694609638378,1.8450940330392438,9.241567714302526
0.1423053622661296,1.8445012627250186,9.230274927120758
0.14291611489388123,1.8439116786153287,9.219084597742825
0.14352686752163288,1.8433253190553491,9.208002702763245
0.1441376201493845,1.8427422256500952,9.197034921906573
0.14474837277713615,1.8421624429432655,9.18618662830253
0.14535912540488774,1.8415860180968369,9.17546287957865
0.14596987803263936,1.8410130005721281,9.164868409790705
0.146580630660391,1.8404434418130513,9.154407622206206
0.14719138328814263,1.83987739493225,9.144084582956674
0.14780213591589428,1.8393149144008119,9.13390301556959
0.1484128885436459,1.8387560557422096,9.123866296388687
0.14902364117139752,1.8382008752311316,9.11397745089028
0.14963439379914917,1.8376494295978119,9.104239150897822
0.1502451464269008,1.8371017757384722,9.094653712697797
0.15085589905465244,1.8365579704324462,9.085223096054424
0.15146665168240406,1.8360180700665483,9.07594890412013
0.15207740431015568,1.8354821303671982,9.06683238423593
0.15268815693790733,1.834950206140825,9.05787442961302
0.15329890956565892,1.8344223510229962,9.049075581884248
0.15390966219341054,1.833898617236737,9.0404360345141
0.1545204148211622,1.8333790553604408,9.031955637049961
0.1551311674489138,1.8328637141057624,9.023633900199005
0.15574192007666546,1.8323526401058468,9.015470001710712
0.15635267270441708,1.8318458777142126,9.007462793042762
0.1569634253321687,1.8313434688145904,8.999610806789436
0.15757417795992035,1.8308454526419768,8.991912264844972
0.15818493058767197,1.8303518656151263,8.9843650872765
0.15879568321542362,1.8298627411806958,8.976966901878367
0.15940643584317524,1.8293781096691968,8.969715054377188
0.16001718847092686,1.8288979981629052,8.962606619256853
0.1606279410986785,1.8284224303758259,8.955638411170735
0.1612386937264301,1.8279514265458003,8.948806996907324
0.16184944635418172,1.8274850033387944,8.942108707873745
0.16246019898193337,1.8270231737653948,8.93553965306207
0.163070951609685,1.8265659471094953,8.929095732460299
0.16368170423743664,1.8261133288691371,8.922772650871043
0.16429245686518826,1.8256653207094375,8.916565932098578
0.16490320949293988,1.8252219204275102,8.910470933465866
0.16551396212069153,1.824783121929257,8.904482860620725
0.16612471474844315,1.824348915217886,8.898596782591776
0.1667354673761948,1.8239192863939802,8.892807647053136
0.16734622000394642,1.8234942176669253,8.887110295757138
0.16795697263169804,1.823073687377473,8.881499480093847
0.16856772525944969,1.8226576700311985,8.875969876736994
0.16917847788720128,1.8222461363425857,8.870516103334293
0.16978923051495293,1.8218390532894595,8.865132734202435
0.17039998314270455,1.821436384177452,8.859814315985028
0.17101073577045617,1.821038088714183,8.854555383234029
0.17162148839820782,1.820644123092806,8.849350473874368
0.17223224102595944,1.8202544400845693,8.844194144512533
0.17284299365371106,1.8198689891399955,8.83908098555018
0.1734537462814627,1.8194877164983123,8.834005636065106
0.17406449890921433,1.8191105653046993,8.828962798421713
0.17467525153696598,1.8187374757349555,8.823947252575044
0.1752860041647176,1.8183683851271364,8.818953870032745
0.17589675679246922,1.8180032281197245,8.813977627440444
0.17650750942022086,1.8176419367958758,8.809013619757367
0.17711826204797246,1.8172844408332802,8.804057072990002
0.1777290146757241,1.816930667659162,8.799103356452918
0.17833976730347573,1.8165805426099386,8.794147994527478
0.17895051993122735,1.8162339890950594,8.789186677890113
0.179561272558979,1.8158909287645262,8.784215274183667
0.18017202518673062,1.8155512816796058,8.77922983810672
0.18078277781448224,1.8152149664862411,8.7742266208979
0.18139353044223389,1.8148819005906542,8.769202079192853
0.1820042830699855,1.8145520003366515,8.76415288323439
0.18261503569773715,1.814225181184129,8.7590759244172
0.18322578832548878,1.8139013578882839,8.753968322151259
0.1838365409532404,1.8135804446790385,8.748827430029511
0.18444729358099204,1.813262355440191,8.74365084128641
0.18505804620874364,1.812947003887807,8.738436393538104
0.18566879883649529,1.8126343037473807,8.733182172794796
0.1862795514642469,1.8123241689292904,8.72788651673897
0.18689030409199853,1.8120165137020963,8.722548017265256
0.18750105671975018,1.8117112528632253,8.717165522279283
0.1881118093475018,1.8114083019066092,8.711738136755118
0.18872256197525342,1.8111075771868437,8.706265223053537
0.18933331460300507,1.8108089960794618,8.700746400504316
0.18994406723075669,1.810512477136917,8.695181544258537
0.19055481985850833,1.8102179402398983,8.689570783419676
0.19116557248625995,1.8099253067436032,8.683914498462157
0.19177632511401158,1.8096344996186196,8.678213317950346
0.19238707774176322,1.8093454435860903,8.672468114571622
0.19299783036951482,1.809058065246838,8.666680000499278
0.19360858299726647,1.8087722932041594,8.660850322103434
0.19421933562501809,1.8084880581800173,8.654980654029115
0.1948300882527697,1.8082052931243735,8.649072792663368
0.19544084088052135,1.8079239333174355,8.643128749014048
0.19605159350827298,1.8076439164646017,8.637150741025424
0.19666234613602462,1.807365182783928,8.631141185357043
0.19727309876377624,1.8070876750859424,8.625102688653035
0.19788385139152787,1.8068113388456737,8.619038038331485
0.1984946040192795,1.8065361222667782,8.612950192924783
0.19910535664703113,1.8062619763376686,8.606842272001707
0.19971610927478275,1.8059888548795786,8.600717545704917
0.20032686190253438,1.8057167145865243,8.594579423937224
0.200937614530286,1.8054455150571302,8.588431445231356
0.20154836715803764,1.8051752188183374,8.582277265338925
0.20215911978578927,1.804905791341015,8.576120645574607
0.20276987241354089,1.8046372010475233,8.569965440951925
0.20338062504129253,1.8043694193113122,8.563815588148291
0.20399137766904415,1.8041024204486453,8.55767509333607
0.2046021302967958,1.8038361817025703,8.551548019917607
0.20521288292454742,1.8035706832192817,8.545438476202055
0.20582363555229904,1.8033059080170328,8.53935060306041
0.2064343881800507,1.8030418419477856,8.533288561597749
0.2070451408078023,1.8027784736517958,8.527256520878225
0.2076558934355539,1.8025157945053611,8.521258645740303
0.20826664606330555,1.8022537985619669,8.515299084737778
0.20887739869105718,1.8019924824870868,8.50938195824215
0.20948815131880882,1.8017318454869167,8.503511346740902
0.21009890394656044,1.8014718892313202,8.497691279365332
0.21070965657431207,1.8012126177712937,8.491925722680536
0.2113204092020637,1.8009540374512647,8.486218569769521
0.21193116182981533,1.800696156816547,8.480573629641095
0.21254191445756698,1.8004389865162898,8.474994616991646
0.2131526670853186,1.8001825392022655,8.469485142347716
0.21376341971307022,1.7999268294238522,8.464048702615901
0.21437417234082187,1.7996718735195678,8.458688672065549
0.2149849249685735,1.7994176895055218,8.453408293766069
