frequency,refractiveIndex,absorption
0.0006107526277516292,2.616191272298408,0.0028299800237225558
0.0012215052555032584,2.6157270671388426,0.011312264253637986
0.0018322578832548875,2.614954837588714,0.025423940996818564
0.002443010511006517,2.613876739870084,0.04512700933159125
0.003053763138758146,2.612495768201336,0.07036865393792194
0.003664515766509775,2.6108157307905633,0.10108162390621754
0.004275268394261404,2.6088412196485975,0.13718470976572683
0.004886021022013034,2.606577574704543,0.17858331159747456
0.005496773649764663,2.604030842786077,0.2251700899068882
0.006107526277516292,2.6012077320916926,0.2768256899529173
0.006718278905267922,2.5981155628307,0.3334195294808879
0.00732903153301955,2.59476221473917,0.3948106392940084
0.00793978416077118,2.591156072195783,0.46084854582376805
0.008550536788522809,2.5873059676614467,0.5313741848148862
0.009161289416274438,2.5832211241516307,0.6062208354117927
0.009772042044026067,2.578911097422108,0.685215064300488
0.010382794671777697,2.5743857185089256,0.7681776700978123
0.010993547299529326,2.5696550372140288,0.8549246188615153
0.011604299927280955,2.564729267070971,0.9452679623899509
0.012215052555032585,2.55961873226296,1.0390167318599004
0.012825805182784214,2.554333816899759,1.135977800285217
0.013436557810535843,2.548884916993047,1.2359567082410752
0.014047310438287471,2.5432823954031356,1.3387584482625006
0.0146580630660391,2.53753653996517,1.4441882042703524
0.015268815693790731,2.5316575249412274,1.5520520432838543
0.01587956832154236,2.525655375887259,1.6621575575308731
0.01649032094929399,2.519539937971134,1.7743144558541937
0.017101073577045618,2.5133208477308844,1.8883351040249776
0.01771182620479725,2.5070075082207355,2.0040350142092
0.018322578832548876,2.5006090674569283,2.1212332843857618
0.018933331460300507,2.4941344000453873,2.2397529889867847
0.019544084088052135,2.487592091849033,2.359421522423116
0.020154836715803762,2.480990427533503,2.4800708974752315
0.020765589343555393,2.474337380815878,2.6015380007758284
0.02137634197130702,2.4676406072312695,2.72366480779177
0.021987094599058652,2.4609074392263963,2.846298559835875
0.02259784722681028,2.4541448833869888,2.969291905709659
0.02320859985456191,2.4473596196065097,3.092503010603617
0.023819352482313542,2.440558002006974,3.215795634868249
0.02443010511006517,2.43374606142788,3.339039185222931
0.025040857737816797,2.4269295093062357,3.4621087408974995
0.025651610365568428,2.420113742778909,3.584885057106988
0.026262362993320056,2.4133038508476745,3.7072545481503285
0.026873115621071687,2.406504621457206,3.829109252301244
0.027483868248823314,2.399720549346452,3.9503467805292423
0.028094620876574942,2.3929558445442156,4.070870250953493
0.028705373504326573,2.38621444139019,4.190588210795353
0.0293161261320782,2.379500007972862,4.309414547457867
0.029926878759829835,2.372815955885684,4.427268390226985
0.030537631387581463,2.3661654502124088,4.544074003957418
0.03114838401533309,2.359551419661674,4.659760675981474
0.03175913664308472,2.3529765667794864,4.774262597359122
0.03236988927083635,2.3464433781763203,4.887518739474333
0.03298064189858798,2.339954134713134,4.99947272687724
0.03359139452633961,2.3335109215975387,5.110072707172754
0.034202147154091235,2.3271156383478178,5.2192712186653445
0.03481289978184286,2.320770008588353,5.327025056385408
0.0354236524095945,2.314475589645406,5.433295137046279
0.036034405037346125,2.308233781917076,5.538046363411351
0.03664515766509775,2.30204583799562,5.641247488487346
0.03725591029284938,2.2959128715243247,5.742870979903405
0.037866662920601014,2.289835865774637,5.842892884785507
0.038477415548352635,2.2838156819323934,5.941292695389747
0.03908816817610427,2.2778530670848407,6.03805321571884
0.039698920803855904,2.2719486619025573,6.133160429311465
0.040309673431607525,2.266103008012614,6.226603368363064
0.04092042605935916,2.260316555061174,6.318373984310298
0.04153117868711079,2.2545896674654395,6.408467019989341
0.04214193131486242,2.248922630856254,6.496879883457888
0.04275268394261404,2.243315658213939,6.583612523554789
0.04336343657036568,2.237768895701006,6.668667307257923
0.043974189198117304,2.232282428196294,6.752048898889022
0.04458494182586893,2.2268562845358435,6.83376414120516
0.04519569445362056,2.2214904424664965,6.913821938410095
0.045806447081372194,2.2161848333187115,6.992233141111927
0.04641719970912382,2.2109393464055507,7.06901043324985
0.04702795233687545,2.205753833155163,7.14416822101059
0.047638704964627084,2.200628110984347,7.217722523751305
0.048249457592378704,2.195561966921029,7.28969086694694
0.04886021022013034,2.1905551609836387,7.360092177177519
0.049470962847881966,2.1856074293255223,7.428946679173095
0.050081715475633594,2.1807184871525602,7.496275794933286
0.05069246810338522,2.1758880314222657,7.5621020449403415
0.051303220731136856,2.171115743332592,7.6264489514851155
0.05191397335888848,2.166401290608744,7.689340944128602
0.05252472598664011,2.16174432959618,7.750803267320819
0.053135478614391746,2.1571445071679882,7.81086189020248
0.05374623124214337,2.1526014624547787,7.86954341861621
0.054356983869895,2.148114828405048,7.926875009353925
0.05496773649764663,2.1436842331840507,7.982884286671191
0.05557848912539826,2.139309301418945,8.037599261098068
0.056189241753149884,2.134989655297975,8.091048250578341
0.05679999438090152,2.130724915531312,8.143259803969551
0.057410747008653146,2.126514702181034,8.194262626936931
0.05802149963640477,2.122358635367621,8.244085510274084
0.0586322522641564,2.1182563358602056,8.292757260684176
0.059243004891908035,2.1142074255576415,8.340306634054015
0.05985375751965967,2.1102115278674045,8.386762271254378
0.06046451014741129,2.106268267989068,8.43215263649706
0.061075262775162925,2.1023772731090675,8.476505958280075
0.06168601540291455,2.098538172513223,8.519850172949303
0.06229676803066618,2.09475059762339,8.56221287090387
0.0629075206584178,2.0910141819644177,8.603621245471011
0.06351827328616944,2.0873285610674523,8.644102044472445
0.06412902591392107,2.083693372315439,8.683681524503163
0.0647397785416727,2.0801082547365204,8.72238540794
0.06535053116942433,2.0765728487508546,8.760238842694237
0.06596128379717596,2.0730867958761956,8.797266364719484
0.0665720364249276,2.069649738397427,8.83349186328283
0.06718278905267921,2.0662613190050023,8.868938549002022
0.06779354168043085,2.062921180407163,8.90362892465073
0.06840429430818247,2.059628964920503,8.937584758725881
0.06901504693593409,2.056384314043376,8.970827061770482
0.06962579956368573,2.0531868680163616,9.003376065439001
0.07023655219143736,2.050036265373896,9.035251204288306
0.070847304819189,2.0469321424909253,9.066471100273857
0.07145805744694061,2.043874133128277,9.097053549924258
0.07206881007469225,2.0408618679802624,9.127015514165356
0.07267956270244387,2.0378949742278025,9.156373110757613
0.0732903153301955,2.0349730751002126,9.185141609308761
0.07390106795794714,2.0320957894485523,9.21333542881669
0.07451182058569876,2.029262731333303,9.24096813769493
0.0751225732134504,2.0264735096288957,9.268052456227439
0.07573332584120203,2.0237277276474694,9.294600261395871
0.07634407846895366,2.0210249827840117,9.320622594016942
0.07695483109670527,2.0183648661848803,9.346129668125384
0.0775655837244569,2.0157469624415083,9.371130882531725
0.07817633635220854,2.0131708493109075,9.3956348344817
0.07878708897996017,2.0106360974644133,9.419649335339901
0.07939784160771181,2.0081422702659504,9.443181428216407
0.08000859423546343,2.005688923580892,9.466237407452294
0.08061934686321505,2.003275605616469,9.488822839876212
0.08123009949096668,2.0009018567944645,9.510942587741743
0.08184085211871832,1.9985672096568021,9.532600833251557
0.08245160474646994,1.99627118880448,9.553801104573177
0.08306235737422157,1.9940133108701341,9.574546303247768
0.08367311000197321,1.991793084524373,9.594838732891203
0.08428386262972484,1.9896100105158943,9.61468012908629
0.08489461525747646,1.9874635817452344,9.634071690361397
0.08550536788522808,1.9853532833718965,9.653014110150771
0.08611612051297972,1.9832785929544503,9.67150760963088
0.08672687314073135,1.9812389806230937,9.689551971325125
0.08733762576848299,1.9792339092840416,9.707146573370348
0.08794837839623461,1.9772628348550012,9.72429042433639
0.08855913102398623,1.9753252065308882,9.740982198492175
0.08916988365173786,1.9734204670788313,9.757220271410157
0.0897806362794895,1.9715480531614502,9.773002755802445
0.09039138890724112,1.9697073956872608,9.788327537482973
0.09100214153499275,1.9678979201870261,9.803192311349752
0.09161289416274439,1.9661190472147614,9.81759461728494
0.09222364679049602,1.964370192772063,9.831531875869123
0.09283439941824764,1.9626507687543517,9.845001423810558
0.09344515204599926,1.9609601834175718,9.858000548990931
0.0940559046737509,1.959297841863834,9.870526525031153
0.09466665730150253,1.9576631465444532,9.88257664528411
0.09527740992925417,1.95605549777879,9.894148256164229
0.09588816255700579,1.9544742942872744,9.905238789724558
0.09649891518475741,1.9529189337369603,9.915845795397955
0.09710966781250904,1.951388813297944,9.925966970820452
0.09772042044026068,1.9498833302089797,9.935600191659471
0.09833117306801231,1.9484018823505658,9.944743540371407
0.09894192569576393,1.9469438688238414,9.95339533381998
0.09955267832351557,1.9455086905335746,9.961554149687206
0.10016343095126719,1.9440957507735714,9.969218851616315
0.10077418357901882,1.9427044558128097,9.97638861302699
0.10138493620677044,1.9413342154806574,9.983062939550694
0.10199568883452208,1.9399844437495146,9.989241690035684
0.10260644146227371,1.938654559313284,9.99492509607777
0.10321719409002535,1.9373439861600692,10.00011378003659
0.10382794671777695,1.9360521541375546,10.004808771501681
0.10443869934552859,1.9347784995095494,10.009011522178112
0.10504945197328022,1.9335224655022294,10.012723919165849
0.10566020460103186,1.9322835028386451,10.015948296611649
0.10627095722878349,1.9310610702601059,10.018687445717239
0.10688170985653511,1.9298546350331298,10.02094462309268
0.10749246248428675,1.9286636734406712,10.022723557448153
0.10810321511203837,1.9274876712564262,10.02402845462252
0.10871396773979,1.9263261242010268,10.02486400095146
0.10932472036754162,1.9251785383790805,10.025235364983573
0.10993547299529326,1.9240444306959752,10.025148197555659
0.11054622562304489,1.922923329253528,10.024608630245064
0.11115697825079653,1.9218147737235574,10.023623272220695
0.11176773087854816,1.9207183156985717,10.022199205517149
0.11237848350629977,1.9196335190188203,10.020343978763671
0.1129892361340514,1.9185599600750167,10.018065599401194
0.11359998876180304,1.917497228086152,10.015372524425878
0.11421074138955467,1.916444925351848,10.012273649701905
0.11482149401730629,1.915402667478807,10.008778297888353
0.11543224664505793,1.914370083580976,10.004896205030569
0.11604299927280955,1.9133468164531227,10.000637505868369
0.11665375190056118,1.912332522717595,9.996012717917178
0.1172645045283128,1.911326872944115,9.99103272438121
0.11787525715606444,1.9103295517425245,9.985708755960452
0.11848600978381607,1.9093402578284817,9.98005237161614
0.1190967624115677,1.9083587040621879,9.974075438361622
0.11970751503931934,1.9073846174602636,9.967790110147071
0.12031826766707095,1.9064177391810175,9.961208805909957
0.12092902029482258,1.9054578244833644,9.954344186863418
0.12153977292257422,1.9045046426597574,9.947209133097063
0.12215052555032585,1.90355797694355,9.93981671956546
0.12276127817807747,1.902617624391255,9.932180191540873
0.1233720308058291,1.9016833957402663,9.924312939608171
0.12398278343358073,1.90075511524262,9.916228474278808
0.12459353606133236,1.8998326204754692,9.907940400302698
0.125204288689084,1.8989157621289752,9.899462390755938
0.1258150413168356,1.8980044037723964,9.890808160982921
0.12642579394458725,1.8970984215991573,9.881991442469522
0.12703654657233887,1.896197704151795,9.873025956725787
0.12764729920009052,1.8953021520276547,9.863925389253234
0.12825805182784214,1.8944116775662825,9.854703363671625
0.12886880445559376,1.8935262045195034,9.84537341608088
0.1294795570833454,1.8926456677051882,9.835948969727667
0.13009030971109703,1.8917700126457386,9.826443310049727
0.13070106233884865,1.8908991951923808,9.816869560165506
0.13131181496660027,1.8900331811363302,9.8072406568749
0.13192256759435192,1.889171945807958,9.797569327237541
0.13253332022210354,1.8883154736650645,9.787868065788214
0.1331440728498552,1.8874637578714155,9.778149112450404
0.13375482547760678,1.8866167998666654,9.76842443120296
0.13436557810535843,1.885774608928839,9.758705689555422
0.13497633073311005,1.88493720173051,9.749004238880467
0.1355870833608617,1.8841046018898322,9.739331095652666
0.13619783598861332,1.8832768395175754,9.729696923636622
0.13680858861636494,1.882453950761302,9.720112017066793
0.13741934124411656,1.8816359773478057,9.710586284854353
0.13803009387186818,1.8808229661249425,9.701129235857405
0.13864084649961983,1.8800149686039345,9.691749965243895
0.13925159912737145,1.879212040503244,9.682457141973998
0.1398623517551231,1.878414241295047,9.673258997425673
0.14047310438287472,1.877621633755371,9.664163315183488
0.14108385701062634,1.8768342835188625,9.655177422005908
0.141694609638378,1.8760522586391877,9.646308179984036
0.1423053622661296,1.8752756291559944,9.637561979900592
0.14291611489388123,1.8745044666693391,9.628944735794805
0.14352686752163288,1.8737388439224574,9.62046188073355
0.1441376201493845,1.8729788343937055,9.612118363789016
0.14474837277713615,1.8722245118984724,9.603918648216043
0.14535912540488774,1.8714759502018068,9.595866710821097
0.14596987803263936,1.8707332226424758,9.587966042511567
0.146580630660391,1.8699964017691244,9.580219650009726
0.14719138328814263,1.8692655589891503,9.572630058712999
0.14780213591589428,1.8685407642308813,9.565199316680905
0.1484128885436459,1.8678220856195802,9.557928999722169
0.14902364117139752,1.8671095891677698,9.55082021755806
0.14963439379914917,1.866403338480312,9.543873621030189
0.1502451464269008,1.8657033944746364,9.537089410322462
0.15085589905465244,1.865009815116464,9.530467344161806
0.15146665168240406,1.8643226551713243,9.524006749961691
0.15207740431015568,1.8636419659721188,9.517706534870056
0.15268815693790733,1.8629677952029389,9.511565197680182
0.15329890956565892,1.8623001866992914,9.505580841563036
0.15390966219341054,1.8616391802648586,9.499751187576626
0.1545204148211622,1.8609848115048548,9.494073588906648
0.1551311674489138,1.860337111676011,9.488545045792312
0.15574192007666546,1.8596961075531668,9.48316222108824
0.15635267270441708,1.8590618213124217,9.477921456414267
0.1569634253321687,1.8584342704307422,9.472818788842675
0.15757417795992035,1.857813467601884,9.467849968072262
0.15818493058767197,1.8571994206684648,9.463010474038128
0.15879568321542362,1.8565921325699641,9.458295534904986
0.15940643584317524,1.8559916013064135,9.453700145392625
0.16001718847092686,1.855397819917485,9.449219085381298
0.1606279410986785,1.8548107764766764,9.444846938743998
0.1612386937264301,1.8542304541002355,9.440578112355595
0.16184944635418172,1.853656830970461,9.436406855224526
0.16246019898193337,1.8530898803729716,9.432327277698487
0.163070951609685,1.852529570747518,9.428333370691302
0.16368170423743664,1.851975865751884,9.42441902488198
0.16429245686518826,1.8514287243384093,9.420578049836204
0.16490320949293988,1.8508881008426241,9.416804193002825
0.16551396212069153,1.8503539450834972,9.41309115853624
0.16612471474844315,1.8498262024747525,9.409432625899944
0.1667354673761948,1.8493048141467132,9.405822268206315
0.16734622000394642,1.8487897170781034,9.402253770247187
0.16795697263169804,1.8482808442372427,9.398720846175241
0.16856772525944969,1.847778124732037,9.395217256793812
0.16917847788720128,1.8472814839681766,9.391736826416167
0.16978923051495293,1.8467908438149372,9.388273459257732
0.17039998314270455,1.8463061227779742,9.384821155323689
0.17101073577045617,1.8458272361784989,9.381374025759728
0.17162148839820782,1.8453540963382162,9.377926307632109
0.17223224102595944,1.844886612769415,9.374472378108521
0.17284299365371106,1.8444246923695788,9.371006768009435
0.1734537462814627,1.8439682396199206,9.367524174705279
0.17406449890921433,1.8435171567872082,9.364019474334645
0.17467525153696598,1.8430713441282922,9.360487733320781
0.1752860041647176,1.842630700096711,9.356924219166805
0.17589675679246922,1.8421951215507997,9.353324410512275
0.17650750942022086,1.8417645039626989,9.349684006433815
0.17711826204797246,1.8413387416276925,9.3459989349773
0.1777290146757241,1.840917727873306,9.342265360910414
0.17833976730347573,1.8405013552676046,9.338479692684725
0.17895051993122735,1.8400895158261583,9.334638588602225
0.179561272558979,1.8396821012171365,9.330738962180012
0.18017202518673062,1.8392790029640125,9.326777986710288
0.18078277781448224,1.838880112645404,9.322753099016788
0.18139353044223389,1.8384853220915311,9.3186620024066
0.1820042830699855,1.8380945235768649,9.314502668823664
0.18261503569773715,1.8377076100084895,9.31027334020725
0.18322578832548878,1.8373244751097748,9.305972529065128
0.1838365409532404,1.83694501359894,9.301599018270595
0.18444729358099204,1.836569121362124,9.297151860093985
0.18505804620874364,1.8361966956206017,9.292630374484473
0.18566879883649529,1.8358276350917953,9.288034146615846
0.1862795514642469,1.8354618401437715,9.283363023714157
0.18689030409199853,1.835099212942914,9.27861711118758
0.18750105671975018,1.8347396575944974,9.273796768076469
0.1881118093475018,1.834383080275925,9.268902601849137
0.18872256197525342,1.8340293893623798,9.263935462565522
0.18933331460300507,1.8336784955447036,9.258896436434178
0.18994406723075669,1.8333303119393114,9.253786838790047
0.19055481985850833,1.8329847541899926,9.248608206520572
0.19116557248625995,1.8326417405614677,9.243362289970511
0.19177632511401158,1.8323011920245822,9.238051044353734
0.19238707774176322,1.8319630323330718,9.232676620706664
0.19299783036951482,1.831627188091828,9.227241356412613
0.19360858299726647,1.831293588816631,9.221747765332616
0.19421933562501809,1.8309621669853449,9.216198527575648
0.1948300882527697,1.8306328580805782,9.210596478943438
0.19544084088052135,1.8303056006238594,9.204944600084614
0.19605159350827298,1.8299803362013678,9.199246005394617
0.19666234613602462,1.829657009481318,9.19350393169603
0.19727309876377624,1.829335568223091,9.187721726737722
0.19788385139152787,1.829015963278237,9.181902837546433
0.1984946040192795,1.8286981485834992,9.176050798669491
0.19910535664703113,1.8283820811460176,9.170169220343748
0.19971610927478275,1.8280677210209002,9.164261776626798
0.20032686190253438,1.827755031281365,9.158332193526615
0.200937614530286,1.8274439779816705,9.152384237164478
0.20154836715803764,1.8271345301130693,9.146421702006583
0.20215911978578927,1.8268266595530516,9.140448399198057
0.20276987241354089,1.826520341008124,9.134468145032901
0.20338062504129253,1.8262155519504293,9.12848474959243
0.20399137766904415,1.825912272548483,9.122502005584685
0.2046021302967958,1.8256104855923492,9.116523677414358
0.20521288292454742,1.8253101764135617,9.110553490514224
0.20582363555229904,1.8250113328001296,9.104595120965513
0.2064343881800507,1.8247139449069496,9.098652185435041
0.2070451408078023,1.8244180051619858,9.09272823145538
0.2076558934355539,1.824123508168556,9.086826728071502
0.20826664606330555,1.8238304506040846,9.080951056879151
0.20887739869105718,1.82353883111568,9.075104503473726
0.20948815131880882,1.8232486502129055,9.069290249332346
0.21009890394656044,1.8229599101581029,9.063511364146628
0.21070965657431207,1.8226726148546335,9.057770798622558
0.2113204092020637,1.8223867697334108,9.052071377763491
0.21193116182981533,1.8221023816380766,9.046415794649183
0.21254191445756698,1.8218194587091923,9.040806604723086
0.2131526670853186,1.8215380102677952,9.035246220597637
0.21376341971307022,1.8212580466986787,9.029736907385756
0.21437417234082187,1.8209795793337369,9.024280778565466
0.2149849249685735,1.8207026203357215,9.018879792382185
