frequency,refractiveIndex,absorption
0.0006107526277516292,2.5512810404767157,0.0027949438367668375
0.0012215052555032584,2.5508321121093838,0.011171757911123677
0.0018322578832548875,2.550085398510254,0.02510645043560879
0.002443010511006517,2.5490431366341118,0.044559235853868166
0.003053763138758146,2.5477084313299847,0.06947483257806175
0.003664515766509775,2.5460852290110827,0.09978287312756398
0.004275268394261404,2.544178284579885,0.13539842020356324
0.004886021022013034,2.5419931221607404,0.17622258070164837
0.005496773649764663,2.5395359902816943,0.2221432083492881
0.006107526277516292,2.5368138122196444,0.27303568458540595
0.006718278905267922,2.533834132275866,0.32876376649439837
0.00732903153301955,2.530605058782981,0.3891804900750958
0.00793978416077118,2.527135204658945,0.45412911686535606
0.008550536788522809,2.5234336263197368,0.5234441119447072
0.009161289416274438,2.519509761741555,0.5969521415824748
0.009772042044026067,2.5153733684273116,0.6744730792619789
0.010382794671777697,2.5110344619829714,0.7558210094629977
0.010993547299529326,2.506503255949894,0.8408052193913017
0.011604299927280955,2.5017901034714574,0.929231169771029
0.012215052555032585,2.4969054412993756,1.0209014368281908
0.012825805182784214,2.491859736568647,1.115616618657492
0.013436557810535843,2.486663436693238,1.2131762002492088
0.014047310438287471,2.481326922658519,1.313379372529589
0.0146580630660391,2.4758604659134824,1.4160258018128897
0.015268815693790731,2.4702741889968167,1.5209163470555431
0.01587956832154236,2.464578029967448,1.6278537232272252
0.01649032094929399,2.4587817106525365,1.7366431099575417
0.017101073577045618,2.452894708675117,1.8470927053733182
0.01771182620479725,2.4469262331793638,1.9590142257052998
0.018322578832548876,2.4408852041342253,2.0722233518132858
0.018933331460300507,2.4347802350654892,2.186540124256786
0.019544084088052135,2.428619619042073,2.3017892889276896
0.020154836715803762,2.422411317723871,2.417800595567415
0.020765589343555393,2.416162953265595,2.53440905171993
0.02137634197130702,2.4098818028627864,2.651455134831129
0.021987094599058652,2.403574795722366,2.768784965302053
0.02259784722681028,2.397248512239814,2.886250443346145
0.02320859985456191,2.3909091851680264,3.003709352496844
0.023819352482313542,2.384562702568276,3.121025432568896
0.02443010511006517,2.378214612341338,3.238068424801588
0.025040857737816797,2.371870128145817,3.3547140918117604
0.025651610365568428,2.365534136521174,3.470844214863242
0.026262362993320056,2.3592112050439593,3.586346570825706
0.026873115621071687,2.352905591357457,3.7011148910497362
0.027483868248823314,2.346621252926828,3.81504880423528
0.028094620876574942,2.3403618573836713,3.9280537652170486
0.028705373504326573,2.3341307933356847,4.040040971437221
0.0293161261320782,2.327931181528533,4.150927268726224
0.029926878759829835,2.3217658862578685,4.2606350478657875
0.030537631387581463,2.3156375269400726,4.369092133269327
0.03114838401533309,2.3095484897599827,4.476231664980692
0.03175913664308472,2.303500939323284,4.581991975068713
0.03236988927083635,2.297496830249703,4.6863164593762425
0.03298064189858798,2.291537918651221,4.789153445475101
0.03359139452633961,2.2856257734468457,4.8904560575781915
0.034202147154091235,2.2797617874721103,4.990182079068139
0.03481289978184286,2.2739471883476994,5.088293813219673
0.0354236524095945,2.268183049077035,5.184757942616928
0.036034405037346125,2.262470298347719,5.279545387700313
0.03664515766509775,2.2568097305161943,5.372631164817131
0.03725591029284938,2.251202015258998,5.463994244096884
0.037866662920601014,2.245647706877598,5.553617407425741
0.038477415548352635,2.240147253246938,5.641487106753243
0.03908816817610427,2.234701004400679,5.727593322929219
0.039698920803855904,2.229309220748582,5.811929425238274
0.040309673431607525,2.223972080923649,5.894492031773239
0.04092042605935916,2.2186896892586043,5.975280870767129
0.04153117868711079,2.2134620828928795,6.054298642985036
0.04214193131486242,2.208289238512805,6.13155088526263
0.04275268394261404,2.2031710787288827,6.207045835265692
0.04336343657036568,2.1981074780951637,6.280794297536039
0.043974189198117304,2.19309826877664,6.352809510881871
0.04458494182586893,2.18814324587136,6.423107017165872
0.04519569445362056,2.183242172394687,6.491704531540375
0.045806447081372194,2.1783947839336273,6.558621814177183
0.04641719970912382,2.173600792979699,6.623880543538973
0.04702795233687545,2.1688598929491665,6.687504191239303
0.047638704964627084,2.164171761899813,6.749517898538906
0.048249457592378704,2.159536065953691,6.809948354528346
0.04886021022013034,2.1549524624354914,6.868823676048439
0.049470962847881966,2.1504206027363613,6.92617328940284
0.050081715475633594,2.1459401349130944,6.982027813919605
0.05069246810338522,2.1415107060327565,7.036418947421858
0.051303220731136856,2.1371319642727884,7.089379353669118
0.05191397335888848,2.132803560786759,7.14094255183576
0.05252472598664011,2.128525151345853,7.19114280809355
0.053135478614391746,2.1242963977662055,7.240015029368549
0.05374623124214337,2.120116969132187,7.287594659345497
0.054356983869895,2.115986542825583,7.333917576792428
0.05496773649764663,2.111904805370694,7.379019996282599
0.05557848912539826,2.1078714531051324,7.422938371389066
0.056189241753149884,2.103886192686108,7.465709300429908
0.05679999438090152,2.0999487414418425,7.507369434841593
0.057410747008653146,2.096058827577603,7.547955390257491
0.05802149963640477,2.0922161902457397,7.587503660368512
0.0586322522641564,2.088420579488947,7.626050533641311
0.059243004891908035,2.084671756065822,7.663632012968093
0.05985375751965967,2.080969491167604,7.700283738320438
0.06046451014741129,2.077313566034818,7.736040912475926
0.061075262775162925,2.0737037714823705,7.770938229885848
0.06168601540291455,2.070139907341398,7.805009808745735
0.06229676803066618,2.06662178182605,7.838289126330324
0.0629075206584178,2.0631492108330907,7.870808957647853
0.06351827328616944,2.0597220171820503,7.902601317465219
0.06412902591392107,2.056340029803409,7.933697405751406
0.0647397785416727,2.0530030828820665,7.964127556580518
0.06535053116942433,2.0497110149631084,7.993921190530523
0.06596128379717596,2.0464636680266737,8.023106770609349
0.0665720364249276,2.043260886538443,8.051711761732808
0.06718278905267921,2.0401025164820408,8.079762593773113
0.06779354168043085,2.036988404379384,8.107284628191223
0.06840429430818247,2.0339183963047818,8.134302128259083
0.06901504693593409,2.0308923368982716,8.160838232871102
0.06962579956368573,2.0279100683834907,8.186914933938755
0.07023655219143736,2.0249714295950763,8.212553057353949
0.070847304819189,2.022076255020317,8.237772247500631
0.07145805744694061,2.0192243738595703,8.262590955288147
0.07206881007469225,2.016415609109617,8.287026429671043
0.07267956270244387,2.013649776673945,8.311094712615153
0.0732903153301955,2.0109266845036275,8.334810637461473
0.07390106795794714,2.0082461317722258,8.358187830633813
0.07451182058569876,2.005607908087897,8.381238716628431
0.0751225732134504,2.0030117927456166,8.40397452621833
0.07573332584120203,2.000457554022168,8.426405307797564
0.07634407846895366,1.997944948516309,8.448539941785272
0.07695483109670527,1.99547372053627,8.47038615800275
0.0775655837244569,1.9930436015365116,8.491950555931162
0.07817633635220854,1.9906543096053877,8.513238627751038
0.07878708897996017,1.9883055490051789,8.5342547840609
0.07939784160771181,1.985997009765676,8.555002382164806
0.08000859423546343,1.9837283673323045,8.575483756815558
0.08061934686321505,1.9814992822695443,8.595700253294845
0.08123009949096668,1.9793094000201739,8.615652262706599
0.08184085211871832,1.9771583507206778,8.635339259356869
0.08245160474646994,1.9750457490729358,8.654759840088985
0.08306235737422157,1.972971194272122,8.673911765439025
0.08367311000197321,1.9709342699905346,8.692792002474166
0.08428386262972484,1.968934544416925,8.711396769173152
0.08489461525747646,1.9669715703506765,8.729721580206087
0.08550536788522808,1.9650448853500326,8.747761293967365
0.08611612051297972,1.963154011933423,8.765510160716575
0.08672687314073135,1.9612984578327277,8.782961871676743
0.08733762576848299,1.9594777162972459,8.8001096089429
0.08794837839623461,1.957691266446921,8.816946096049131
0.08855913102398623,1.9559385736732817,8.833463649044923
0.08916988365173786,1.9542190900864107,8.849654227930674
0.0897806362794895,1.9525322550061566,8.865509488302251
0.09039138890724112,1.9508774954956651,8.88102083305662
0.09100214153499275,1.9492542269352167,8.896179464010698
0.09161289416274439,1.947661853634269,8.910976433288235
0.09222364679049602,1.946099769479496,8.925402694330336
0.09283439941824764,1.9445673586165548,8.939449152389159
0.09344515204599926,1.943063996163236,8.95310671436606
0.0940559046737509,1.9415890489515668,8.966366337858378
0.09466665730150253,1.9401418762964346,8.979219079283883
0.09527740992925417,1.9387218307881755,8.991656140953882
0.09588816255700579,1.937328259106621,9.003668916972144
0.09649891518475741,1.9359605028539788,9.015249037838927
0.09710966781250904,1.9346178994039738,9.02638841364684
0.09772042044026068,1.9332997827646106,9.037079275758039
0.09833117306801231,1.9320054844519312,9.047314216858405
0.09894192569576393,1.93073433437215,9.057086229290825
0.09955267832351557,1.9294856617095317,9.066388741574386
0.10016343095126719,1.9282587958174238,9.075215653022385
0.10077418357901882,1.9270530671098445,9.083561366379229
0.10138493620677044,1.925867807951095,9.091420818402561
0.10199568883452208,1.9247023535408592,9.098789508322437
0.10260644146227371,1.923556042792342,9.105663524118123
0.10321719409002535,1.9224282192010027,9.112039566558277
0.10382794671777695,1.9213182317015474,9.117914970958847
0.10443869934552859,1.9202254355108457,9.123287726618583
0.10504945197328022,1.9191491929545745,9.128156493901187
0.10566020460103186,1.9180888742754014,9.132520618938273
0.10627095722878349,1.9170438584206497,9.13638014593674
0.10688170985653511,1.9160135338074444,9.13973582707997
0.10749246248428675,1.914997299063432,9.142589130019713
0.10810321511203837,1.913994563741277,9.144942242964119
0.10871396773979,1.9130047490052056,9.14679807737227
0.10932472036754162,1.9120272882880127,9.148160268275058
0.10993547299529326,1.9110616279170054,9.149033172247211
0.11054622562304489,1.9101072277075049,9.149421863063713
0.11115697825079653,1.9091635615226148,9.14933212507922
0.11176773087854816,1.9082301177980934,9.148770444376678
0.11237848350629977,1.9073064000312765,9.14774399773708
0.1129892361340514,1.9063919272331096,9.146260639488414
0.11359998876180304,1.9054862343424834,9.144328886297613
0.11421074138955467,1.9045888726021645,9.141957899976047
0.11482149401730629,1.9036994098957598,9.139157468372467
0.11543224664505793,1.90281743104524,9.135937984433715
0.11604299927280955,1.9019425380687063,9.132310423518701
0.11665375190056118,1.9010743503981689,9.12828631905393
0.1172645045283128,1.9002125050572487,9.123877736624449
0.11787525715606444,1.8993566567988145,9.119097246596954
0.11848600978381607,1.898506478202696,9.113957895376364
0.1190967624115677,1.897661659733715,9.108473175398176
0.11970751503931934,1.8968219097604007,9.102656993964215
0.12031826766707095,1.895986954534845,9.09652364102943
0.12092902029482258,1.8951565381342754,9.090087756050856
0.12153977292257422,1.8943304223650208,9.083364294010778
0.12215052555032585,1.8935083866296372,9.076368490726978
0.12276127817807747,1.8926902277580482,9.06911582756517
0.1233720308058291,1.8918757598036815,9.061621995667327
0.12398278343358073,1.8910648138056128,9.053902859811403
0.12459353606133236,1.8902572375178508,9.045974422015536
0.125204288689084,1.8894528951069625,9.037852785002242
0.1258150413168356,1.888651666819304,9.029554115633939
0.12642579394458725,1.8878534486191845,9.021094608431264
0.12703654657233887,1.8870581517993705,9.01249044928493
0.12764729920009052,1.8862657025653708,9.003757779466763
0.12825805182784214,1.885476041595007,8.994912660047278
0.12886880445559376,1.8846891235748098,8.985971036820859
0.1294795570833454,1.8839049167148365,8.976948705838499
0.13009030971109703,1.883123402243513,8.967861279645296
0.13070106233884865,1.8823445738841547,8.958724154314803
0.13131181496660027,1.8815684373148325,8.9495524773691
0.13192256759435192,1.880795009613269,8.940361116671443
0.13253332022210354,1.8800243186884622,8.93116463037092
0.1331440728498552,1.87925640270074,8.921977237976604
0.13375482547760678,1.8784913094719446,8.912812792633334
0.13436557810535843,1.8777290958874586,8.903684754666548
0.13497633073311005,1.8769698272917505,8.894606166459189
0.1355870833608617,1.8762135768791266,8.885589628717609
0.13619783598861332,1.8754604250813436,8.876647278180293
0.13680858861636494,1.8747104589537156,8.867790766815814
0.13741934124411656,1.8739637715613293,8.859031242553115
0.13803009387186818,1.8732204613669385,8.850379331581054
0.13864084649961983,1.8724806316220752,8.841845122249076
0.13925159912737145,1.8717443897628925,8.83343815059508
0.1398623517551231,1.8710118468121764,8.82516738752242
0.14047310438287472,1.87028311678896,8.817041227641834
0.14108385701062634,1.8695583161270863,8.809067479788864
0.141694609638378,1.8688375631040326,8.801253359222283
0.1423053622661296,1.8681209772812657,8.793605481504695
0.14291611489388123,1.8674086789573006,8.786129858060267
0.14352686752163288,1.8667007886346267,8.778831893399996
0.1441376201493845,1.86599742650156,8.771716384001174
0.14474837277713615,1.8652987119300426,8.764787518821198
0.14535912540488774,1.864604762990342,8.758048881422692
0.14596987803263936,1.8639156959835232,8.751503453682657
0.146580630660391,1.863231624992522,8.745153621052252
0.14719138328814263,1.862552661452559,8.739001179332659
0.14780213591589428,1.86187891374158,8.733047342925968
0.1484128885436459,1.8612104867913313,8.727292754517054
0.14902364117139752,1.860547481719618,8.721737496141037
0.14963439379914917,1.8598899954842152,8.716381101582924
0.1502451464269008,1.8592381205588435,8.711222570058796
0.15085589905465244,1.8585919446315335,8.706260381119057
0.15146665168240406,1.8579515503256776,8.70149251071679
0.15207740431015568,1.8573170149439382,8.696916448377946
0.15268815693790733,1.8566884102351824,8.69252921541015
0.15329890956565892,1.8560658021844958,8.688327384083513
0.15390966219341054,1.8554492508262983,8.6843070977158
0.1545204148211622,1.854838810080506,8.680464091592595
0.1551311674489138,1.854234527611627,8.676793714651165
0.15574192007666546,1.8536364447106293,8.67329095185696
0.15635267270441708,1.8530445961993371,8.669950447198103
0.1569634253321687,1.8524590103570981,8.666766527226406
0.15757417795992035,1.851879708869361,8.663733225068867
0.15818493058767197,1.8513067067977986,8.660844304836877
0.15879568321542362,1.8507400125715257,8.658093286357103
0.15940643584317524,1.8501796279989475,8.655473470151279
0.16001718847092686,1.8496255482996935,8.65297796258987
0.1606279410986785,1.8490777621560868,8.650599701146788
0.1612386937264301,1.8485362517835322,8.648331479682552
0.16184944635418172,1.848000993019181,8.646165973683804
0.16246019898193337,1.8474719554281962,8.644095765389311
0.163070951609685,1.8469491024269022,8.64211336873225
0.16368170423743664,1.8464323914220873,8.640211254032415
0.16429245686518826,1.8459217739656784,8.638381872370474
0.16490320949293988,1.8454171959240118,8.636617679581937
0.16551396212069153,1.8449185976608686,8.634911159806371
0.16612471474844315,1.8444259142334594,8.633254848533445
0.1667354673761948,1.8439390756004927,8.631641355087158
0.16734622000394642,1.8434580068414708,8.630063384491576
0.16795697263169804,1.8429826283863324,8.628513758666614
0.16856772525944969,1.8425128562545638,8.626985436902373
0.16917847788720128,1.8420486023028728,8.625471535564062
0.16978923051495293,1.8415897744805376,8.623965346982366
0.17039998314270455,1.8411362770915345,8.622460357488306
0.17101073577045617,1.8406880110625332,8.62095026455167
0.17162148839820782,1.8402448742158701,8.619428992987586
0.17223224102595944,1.8398067615466138,8.617890710199061
0.17284299365371106,1.8393735655028238,8.616329840423836
0.1734537462814627,1.8389451762681404,8.614741077960328
0.17406449890921433,1.8385214820458313,8.613119399348534
0.17467525153696598,1.8381023693434533,8.611460074485837
0.1752860041647176,1.8376877232572777,8.609758676660544
0.17589675679246922,1.837277427755684,8.60801109149049
0.17650750942022086,1.8368713659606948,8.606213524755162
0.17711826204797246,1.8364694204268932,8.604362509115113
0.1777290146757241,1.8360714734169545,8.602454909714563
0.17833976730347573,1.835677407173065,8.60048792866737
0.17895051993122735,1.8352871041835113,8.598459108428111
0.179561272558979,1.8349004474437716,8.59636633405519
0.18017202518673062,1.8345173207114402,8.59420783437429
0.18078277781448224,1.834137608754378,8.59198218205464
0.18139353044223389,1.8337611975914807,8.589688292613486
0.1820042830699855,1.8333879747255142,8.587325422366522
0.18261503569773715,1.8330178293674824,8.584893165345182
0.18322578832548878,1.832650652652029,8.582391449204632
0.1838365409532404,1.8322863378434282,8.579820530150233
0.18444729358099204,1.831924780531708,8.577180986907695
0.18505804620874364,1.8315658788185507,8.574473713773829
0.18566879883649529,1.831209533492586,8.571699912776824
0.1862795514642469,1.8308556481937797,8.568861084985041
0.18689030409199853,1.8305041295666202,8.565959021001614
0.18750105671975018,1.830154887401874,8.562995790685063
0.1881118093475018,1.829807834766688,8.559973732138085
0.18872256197525342,1.8294628881228823,8.556895440008416
0.18933331460300507,1.8291199674332912,8.553763753146784
0.18994406723075669,1.8287789962560574,8.550581741668871
0.19055481985850833,1.8284399018268274,8.547352693469813
0.19116557248625995,1.828102615128816,8.544080100239192
0.19177632511401158,1.827767070950756,8.540767643028186
0.19238707774176322,1.8274332079327869,8.537419177418352
0.19299783036951482,1.827100968600353,8.534038718344803
0.19360858299726647,1.8267702993862407,8.530630424624718
0.19421933562501809,1.826441150640896,8.527198583244449
0.1948300882527697,1.826113476631207,8.523747593457312
0.19544084088052135,1.8257872355279647,8.520281950744467
0.19605159350827298,1.825462389382246,8.516806230691605
0.19666234613602462,1.8251389040909882,8.513325072832778
0.19727309876377624,1.824816749352059,8.50984316451389
0.19788385139152787,1.8244958986091455,8.506365224825426
0.1984946040192795,1.8241763289868154,8.502895988655876
0.19910535664703113,1.8238580212161264,8.499440190913845
0.19971610927478275,1.8235409595511771,8.496002550967264
0.20032686190253438,1.8232251316770298,8.49258775734704
0.200937614530286,1.8229105286094234,8.48920045275924
0.20154836715803764,1.8225971445867548,8.485845219451392
0.20215911978578927,1.8222849769547806,8.482526564973908
0.20276987241354089,1.821974026044538,8.479248908377635
0.20338062504129253,1.8216642950439739,8.476016566885983
0.20399137766904415,1.8213557898638033,8.472833743079317
0.2046021302967958,1.8210485189980992,8.469704512624233
0.20521288292454742,1.8207424933801568,8.466632812582668
0.20582363555229904,1.8204377262341536,8.463622430329067
0.2064343881800507,1.8201342329231402,8.460676993104453
0.2070451408078023,1.8198320307939078,8.4577999582329
0.2076558934355539,1.8195311390192632,8.454994604023515
0.20826664606330555,1.819231578438255,8.452264021378006
0.20887739869105718,1.818933371394874,8.449611106122711
0.20948815131880882,1.8186365415757744,8.44703855207971
0.21009890394656044,1.818341113847527,8.444548844890896
0.21070965657431207,1.8180471140939196,8.442144256604337
0.2113204092020637,1.8177545690538257,8.439826841031502
0.21193116182981533,1.8174635061601194,8.437598429879388
0.21254191445756698,1.8171739533801339,8.435460629661645
0.2131526670853186,1.8168859390581296,8.433414819386801
0.21376341971307022,1.8165994917602275,8.431462149022137
0.21437417234082187,1.816314640122248,8.429603538728188
0.2149849249685735,1.8160314127008819,8.427839678855586
