frequency,refractiveIndex,absorption
0.0006107526277516292,2.3749049579297323,0.0022533790732099635
0.0012215052555032584,2.374566187701185,0.00900694087156137
0.0018322578832548875,2.374002726750166,0.020241006498874278
0.002443010511006517,2.3732162990255556,0.035922934967439986
0.003053763138758146,2.3722092978364704,0.05600735645793296
0.003664515766509775,2.3709847660306242,0.08043649395439803
0.004275268394261404,2.3695463710651565,0.10914056848368091
0.004886021022013034,2.367898375365672,0.1420382820442196
0.005496773649764663,2.3660456024347023,0.17903737131638192
0.006107526277516292,2.3639933992245883,0.22003522442605747
0.006718278905267922,2.361747595330449,0.2649195523992368
0.00732903153301955,2.3593144595861877,0.3135691065055125
0.00793978416077118,2.3567006546605773,0.36585443244323473
0.008550536788522809,2.353913190251346,0.4216386522628794
0.009161289416274438,2.3509593754641553,0.4807782650472687
0.009772042044026067,2.3478467709413144,0.5431239576511295
0.010382794671777697,2.3445831412732825,0.6085214172290756
0.010993547299529326,2.341176408186621,0.6768121378274891
0.011604299927280955,2.337634604955936,0.7478342139592944
0.012215052555032585,2.33396583243702,0.821423114795832
0.012825805182784214,2.330178217064824,0.8974124333739307
0.013436557810535843,2.326279871105235,0.9756346060063295
0.014047310438287471,2.3222788553947575,1.0559215978784078
0.0146580630660391,2.3181831447488683,1.138105551596627
0.015268815693790731,2.3140005961686194,1.2220193962070587
0.01587956832154236,2.3097389199273546,1.307497414914707
0.01649032094929399,2.3054056535751744,1.3943757703942212
0.017101073577045618,2.301008138859314,1.4824929871844608
0.01771182620479725,2.2965535015233227,1.5716903911972335
0.018322578832548876,2.2920486339176382,1.6618125068427754
0.018933331460300507,2.2875001803284043,1.7527074126800921
0.019544084088052135,2.2829145249102467,1.8442270568412216
0.020154836715803762,2.2782977820918755,1.936227533756637
0.020765589343555393,2.2736557893106375,2.028569323928729
0.02137634197130702,2.268994101922973,2.1211174986657313
0.021987094599058652,2.2643179901320014,2.213741891804679
0.02259784722681028,2.259632437770554,2.306317240524533
0.02320859985456191,2.2549421427776193,2.398723297384187
0.023819352482313542,2.250251519208069,2.490844915721345
0.02443010511006517,2.245564700619008,2.582572110519951
0.025040857737816797,2.2408855446813,2.6738000968046785
0.025651610365568428,2.2362176388708894,2.764429307549968
0.026262362993320056,2.2315643071017273,2.854365393008685
0.026873115621071687,2.226928617169722,2.943519203269538
0.027483868248823314,2.2223133888852598,3.0318067557500825
0.028094620876574942,2.2177212027801327,3.1191491892242165
0.028705373504326573,2.2131544092831312,3.205472705873597
0.0293161261320782,2.208615138266768,3.290708502740562
0.029926878759829835,2.204105308875872,3.374792693852456
0.030537631387581463,2.199626639556515,3.457666224178599
0.03114838401533309,2.195180658211438,3.5392747764795196
0.03175913664308472,2.190768712415304,3.619568672009111
0.03236988927083635,2.1863919796298403,3.6985027659360483
0.03298064189858798,2.182051477365486,3.776036338264522
0.03359139452633961,2.1777480732420216,3.8521329809511267
0.034202147154091235,2.1734824949062514,3.926760481839041
0.03481289978184286,2.1692553397700043,3.999890705961001
0.0354236524095945,2.1650670845364086,4.071499474698099
0.036034405037346125,2.160918094486805,4.141566443223414
0.03664515766509775,2.1568086325045988,4.210074976606519
0.03725591029284938,2.152738867816069,4.277012024908174
0.037866662920601014,2.1487088844314286,4.342367997551965
0.038477415548352635,2.144718689272432,4.4061366372222235
0.03908816817610427,2.1407682199756213,4.468314893505167
0.039698920803855904,2.1368573523626853,4.528902796461177
0.040309673431607525,2.1329859075717366,4.5879033302914145
0.04092042605935916,2.129153658845227,4.645322307241398
0.04153117868711079,2.125360337972125,4.701168241865098
0.04214193131486242,2.12160564138352,4.75545222575997
0.04275268394261404,2.1178892359023362,4.808187802869023
0.04336343657036568,2.1142107641491354,4.859390845438539
0.043974189198117304,2.1105698496071454,4.909079430710593
0.04458494182586893,2.106966101350674,4.9572737184247915
0.04519569445362056,2.103399118442089,5.003995829199846
0.045806447081372194,2.099868494003251,5.049269723862426
0.04641719970912382,2.0963738189681074,5.093121083789661
0.04702795233687545,2.092914685523784,5.135577192332524
0.047638704964627084,2.0894906902480597,5.176666817385842
0.048249457592378704,2.086101436951649,5.216420095174958
0.04886021022013034,2.0827465392340985,5.254868415328054
0.049470962847881966,2.0794256227625754,5.292044307308763
0.050081715475633594,2.0761383272830116,5.327981328283069
0.05069246810338522,2.072884308373486,5.362713952500656
0.051303220731136856,2.06966323894984,5.396277462271179
0.05191397335888848,2.0664748105337734,5.42870784062066
0.05252472598664011,2.063318734293776,5.460041665715372
0.053135478614391746,2.0601947418693665,5.490316007142742
0.05374623124214337,2.0571025859892123,5.519568324142766
0.054356983869895,2.054042040893659,5.547836365883255
0.05496773649764663,2.051012902572334,5.57515807387617
0.05557848912539826,2.0480149888273496,5.601571486632246
0.056189241753149884,2.0450481391726547,5.627114646652052
0.05679999438090152,2.0421122145800084,5.65182550985292
0.057410747008653146,2.0392070970819227,5.675741857529927
0.05802149963640477,2.0363326892418474,5.69890121094934
0.0586322522641564,2.0334889135017113,5.721340748671593
0.059243004891908035,2.0306757114167633,5.743097226698413
0.05985375751965967,2.0278930427875554,5.764206901538744
0.06046451014741129,2.025140884698607,5.784705456282269
0.061075262775162925,2.0224192304732216,5.8046279297694054
0.06168601540291455,2.0197280885535642,5.824008648940242
0.06229676803066618,2.0170674813150336,5.842881164442837
0.0629075206584178,2.0144374438235575,5.861278189575716
0.06351827328616944,2.0118380225443375,5.879231542633907
0.06412902591392107,2.0092692740101987,5.896772092724049
0.0647397785416727,2.006731263457477,5.91392970910674
0.06535053116942433,2.0042240634370994,5.930733214118905
0.06596128379717596,2.0017477524082,5.947210339722499
0.0665720364249276,1.9993024133213653,5.963387687719066
0.06718278905267921,1.9968881321982501,5.979290693662023
0.06779354168043085,1.9945049967140724,5.994943594492862
0.06840429430818247,1.9921530947891368,6.010369399918307
0.06901504693593409,1.9898325131952634,6.0255898675388
0.06962579956368573,1.9875433361826689,6.040625481730724
0.07023655219143736,1.9852856441325837,6.055495436277417
0.070847304819189,1.9830595122405195,6.070217620734868
0.07145805744694061,1.9808650092348483,6.084808610511433
0.07206881007469225,1.9787021961350193,6.099283660632347
0.07267956270244387,1.976571125053456,6.113656703151313
0.0732903153301955,1.974471838044849,6.127940348164542
0.07390106795794714,1.9724043660062955,6.142145888374217
0.07451182058569876,1.9703687276314077,6.1562833071399
0.0751225732134504,1.9683649284212519,6.17036128995097
0.07573332584120203,1.9663929597546637,6.184387239242354
0.07634407846895366,1.9644527980202284,6.198367292471839
0.07695483109670527,1.962544403811921,6.212306343367695
0.0775655837244569,1.9606677211901304,6.226208066249603
0.07817633635220854,1.95882267700954,6.240074943318726
0.07878708897996017,1.957009180315049,6.25390829480661
0.07939784160771181,1.9552271218066843,6.267708311865862
0.08000859423546343,1.953476373374205,6.2814740920804795
0.08061934686321505,1.95175678770184,6.295203677467328
0.08123009949096668,1.9500681979433814,6.308894094835274
0.08184085211871832,1.9484104174676273,6.322541398363978
0.08245160474646994,1.9467832396739202,6.336140714258797
0.08306235737422157,1.9451864378773611,6.349686287335108
0.08367311000197321,1.9436197652630138,6.363171529380811
0.08428386262972484,1.9420829549082603,6.376589069142293
0.08489461525747646,1.940575719872257,6.389930803777056
0.08550536788522808,1.939097753351251,6.403187951611647
0.08611612051297972,1.9376487288983573,6.4163511060439
0.08672687314073135,1.9362283007062029,6.429410290423878
0.08733762576848299,1.9348361039507234,6.442355013749229
0.08794837839623461,1.9334717551941945,6.455174327007586
0.08855913102398623,1.932134852845488,6.467856879999472
0.08916988365173786,1.9308249776753579,6.4803909784748335
0.0897806362794895,1.929541693384482,6.492764641415931
0.09039138890724112,1.9282845472218408,6.5049656583024085
0.09100214153499275,1.9270530706508886,6.516981646191903
0.09161289416274439,1.9258467800609205,6.528800106456203
0.09222364679049602,1.9246651775209025,6.540408481010323
0.09283439941824764,1.92350775157297,6.55179420787815
0.09344515204599926,1.9223739780627205,6.562944775939537
0.0940559046737509,1.9212633210033654,6.573847778707788
0.09466665730150253,1.9201752334707478,6.5844909669901135
0.09527740992925417,1.9191091585261806,6.594862300288898
0.09588816255700579,1.9180645301640384,6.604949996804771
0.09649891518475741,1.9170407742809892,6.614742581909448
0.09710966781250904,1.9160373096637398,6.62422893496019
0.09772042044026068,1.9150535489921716,6.6333983343346405
0.09833117306801231,1.9140888998547168,6.642240500570644
0.09894192569576393,1.9131427657728477,6.650745637501969
0.09955267832351557,1.912214547231576,6.658904471288229
0.10016343095126719,1.9113036427128631,6.666708287243657
0.10077418357901882,1.9104094497288902,6.674148964377664
0.10138493620677044,1.9095313658521773,6.681219007566419
0.10199568883452208,1.9086687897395829,6.68791157728427
0.10260644146227371,1.9078211221472863,6.6942205168299544
0.10321719409002535,1.9069877669339061,6.700140376992231
0.10382794671777695,1.9061681320489865,6.705666438106382
0.10443869934552859,1.9053616305041812,6.7107947294635055
0.10504945197328022,1.90456768132451,6.715522046040412
0.10566020460103186,1.903785710477208,6.7198459625286215
0.10627095722878349,1.9030151517757452,6.723764844648565
0.10688170985653511,1.9022554477567297,6.727277857743455
0.10749246248428675,1.901506050527495,6.730384972656056
0.10810321511203837,1.9007664225823249,6.733086968900977
0.10871396773979,1.900036037585328,6.735385435151101
0.10932472036754162,1.8993143811181883,6.737282767067518
0.10993547299529326,1.898600951391061,6.738782162508722
0.11054622562304489,1.897895259915077,6.739887614163711
0.11115697825079653,1.8971968321350219,6.740603899660558
0.11176773087854816,1.8965052080209175,6.740936569210094
0.11237848350629977,1.8958199426173579,6.740891930850899
0.1129892361340514,1.8951406065495982,6.74047703336968
0.11359998876180304,1.8944667864855544,6.739699646976611
0.11421074138955467,1.8937980855529875,6.738568241822327
0.11482149401730629,1.893134123711316,6.737091964448758
0.11543224664505793,1.8924745380776378,6.735280612271796
0.11604299927280955,1.8918189832066743,6.7331446061992795
0.11665375190056118,1.8911671313245073,6.730694961491345
0.1172645045283128,1.890518672516115,6.727943256976671
0.11787525715606444,1.889873314866847,6.724901602739911
0.11848600978381607,1.889230784558114,6.721582606401041
0.1190967624115677,1.8885908259177122,6.717999338108787
0.11970751503931934,1.8879532014253158,6.714165294374671
0.12031826766707095,1.8873176916738041,6.710094360874894
0.12092902029482258,1.886684095287212,6.705800774349925
0.12153977292257422,1.8860522287962103,6.701299083733188
0.12215052555032585,1.8854219264721197,6.6966041106394165
0.12276127817807747,1.8847930401205912,6.691730909346677
0.1233720308058291,1.8841654388361748,6.68669472640313
0.12398278343358073,1.8835390087190842,6.681510959990092
0.12459353606133236,1.8829136525555774,6.676195119173269
0.125204288689084,1.8822892894634362,6.670762783170625
0.1258150413168356,1.8816658545041183,6.665229560765834
0.12642579394458725,1.8810432982632135,6.659611049991425
0.12703654657233887,1.8804215864009164,6.6539227982065885
0.12764729920009052,1.8798006991742744,6.648180262688728
0.12825805182784214,1.8791806309330135,6.642398771856095
0.12886880445559376,1.8785613895908149,6.636593487235544
0.1294795570833454,1.877942996073924,6.630779366284143
0.13009030971109703,1.8773254837490287,6.624971126171129
0.13070106233884865,1.8767088978323427,6.619183208620549
0.13131181496660027,1.876093294781883,6.613429745910871
0.13192256759435192,1.8754787416748997,6.607724528123531
0.13253332022210354,1.8748653155724664,6.602080971726022
0.1331440728498552,1.874253102873197,6.596512089570545
0.13375482547760678,1.8736421986580776,6.59103046238332
0.13436557810535843,1.8730327060283818,6.585648211815153
0.13497633073311005,1.8724247354386059,6.5803769751150805
0.1355870833608617,1.8718184040263603,6.575227881487127
0.13619783598861332,1.871213834941102,6.570211530180741
0.13680858861636494,1.8706111566735732,6.565337970360543
0.13741934124411656,1.87001050238777,6.560616682795842
0.13803009387186818,1.8694120092572137,6.556056563402937
0.13864084649961983,1.8688158178072583,6.551665908667226
0.13925159912737145,1.8682220712651163,6.54745240296674
0.1398623517551231,1.8676309149192176,6.5434231078118925
0.14047310438287472,1.8670424954894744,6.539584453010558
0.14108385701062634,1.8664569605099497,6.535942229761373
0.141694609638378,1.8658744577253612,6.532501585671927
0.1423053622661296,1.8652951345028017,6.529267021694111
0.14291611489388123,1.8647191372599552,6.526242390960822
0.14352686752163288,1.864146610911054,6.523430899505472
0.1441376201493845,1.863577698331711,6.520835108837153
0.14474837277713615,1.863012539843708,6.518456940343181
0.14535912540488774,1.86245127272074,6.5162976814802
0.14596987803263936,1.8618940307160259,6.514357993716247
0.146580630660391,1.8613409436126254,6.512637922175972
0.14719138328814263,1.860792136797232,6.511136906941271
0.14780213591589428,1.8602477308580967,6.509853795951125
0.1484128885436459,1.859707841207701,6.5087868594440135
0.14902364117139752,1.8591725777306831,6.507933805880595
0.14963439379914917,1.8586420444574578,6.5072917992802894
0.1502451464269008,1.858116339263879,6.506857477903711
0.15085589905465244,1.8575955535972322,6.506626974208239
0.15146665168240406,1.8570797722287455,6.506595936002507
0.15207740431015568,1.8565690730327442,6.506759548721557
0.15268815693790733,1.8560635267924945,6.507112558743712
0.15329890956565892,1.8555631970327067,6.507649297666124
0.15390966219341054,1.8550681398785922,6.508363707457002
0.1545204148211622,1.8545784039413067,6.509249366397162
0.1551311674489138,1.8540940302295348,6.510299515726814
0.15574192007666546,1.853615052086903,6.511507086907933
0.15635267270441708,1.85314149515485,6.51286472941545
0.1569634253321687,1.8526733773605188,6.51436483896809
0.15757417795992035,1.8522107089291688,6.5159995861094115
0.15818493058767197,1.8517534924205532,6.517760945051517
0.15879568321542362,1.8513017227886535,6.519640722691019
0.15940643584317524,1.8508553874641076,6.521630587710989
0.16001718847092686,1.850414466458616,6.523722099680385
0.1606279410986785,1.8499789324905678,6.525906738065292
0.1612386937264301,1.849548751131087,6.528175931066885
0.16184944635418172,1.8491238809696484,6.530521084202456
0.16246019898193337,1.8487042737983803,6.532933608548065
0.163070951609685,1.848289874814146,6.535404948562557
0.16368170423743664,1.847880622837439,6.5379266094154325
0.16429245686518826,1.8474764505471286,6.5404901837433185
0.16490320949293988,1.8470772847300405,6.543087377761563
0.16551396212069153,1.8466830465443531,6.545710036661368
0.16612471474844315,1.846293651795761,6.548350169224873
0.1667354673761948,1.8459090112253402,6.55099997159428
0.16734622000394642,1.8455290308080425,6.553651850132367
0.16795697263169804,1.8451536120607375,6.556298443319403
0.16856772525944969,1.8447826523586963,6.558932642629139
0.16917847788720128,1.8444160452594391,6.561547612335538
0.16978923051495293,1.84405368083283,6.564136808201431
0.17039998314270455,1.843695445996335,6.566693995006912
0.17101073577045617,1.843341224854351,6.569213262877964
0.17162148839820782,1.842990899040517,6.5716890423791465
0.17223224102595944,1.8426443480619437,6.574116118340293
0.17284299365371106,1.8423014496442924,6.576489642388353
0.1734537462814627,1.8419620800766687,6.57880514416261
0.17406449890921433,1.8416261145552997,6.581058541193102
0.17467525153696598,1.841293427524996,6.583246147428272
0.1752860041647176,1.8409638930174135,6.585364680400409
0.17589675679246922,1.8406373849851638,6.587411267022539
0.17650750942022086,1.8403137776308471,6.589383448015537
0.17711826204797246,1.8399929457301052,6.591279180964552
0.1777290146757241,1.8396747649478378,6.59309684201374
0.17833976730347573,1.8393591121467467,6.594835226206767
0.17895051993122735,1.8390458656874171,6.596493546488134
0.179561272558979,1.8387349057191713,6.598071431382596
0.18017202518673062,1.8384261144609868,6.5995689213743685
0.18078277781448224,1.8381193764717947,6.600986464011386
0.18139353044223389,1.837814578909521,6.602324907763399
0.1820042830699855,1.8375116117782861,6.603585494666495
0.18261503569773715,1.8372103681632008,6.604769851788932
0.18322578832548878,1.836910744452269,6.605879981558902
0.1838365409532404,1.8366126405449243,6.606918250994642
0.18444729358099204,1.836315960046802,6.607887379882394
0.18505804620874364,1.8360206104503685,6.608790427950991
0.18566879883649529,1.8357265033011012,6.609630781091749
0.1862795514642469,1.83543355434894,6.610412136678056
0.18689030409199853,1.8351416836847931,6.611138488039033
0.18750105671975018,1.8348508158619146,6.611814108144308
0.1881118093475018,1.8345608800020363,6.612443532559595
0.18872256197525342,1.8342718098861643,6.613031541733846
0.18933331460300507,1.8339835440300096,6.6135831426795635
0.18994406723075669,1.8336960257440607,6.614103550110398
0.19055481985850833,1.8334092031783664,6.614598167101101
0.19116557248625995,1.8331230293521188,6.61507256533452
0.19177632511401158,1.8328374621681873,6.615532465002631
0.19238707774176322,1.8325524644127986,6.615983714427959
0.19299783036951482,1.8322680037405816,6.616432269472567
0.19360858299726647,1.8319840526452587,6.6168841728012895
0.19421933562501809,1.831700588416289,6.617345533067035
0.1948300882527697,1.8314175930818108,6.617822504083096
0.19544084088052135,1.8311350533382695,6.618321264050017
0.19605159350827298,1.8308529604671482,6.618847994901371
0.19666234613602462,1.830571310239253,6.619408861832345
0.19727309876377624,1.8302901028070329,6.620009993075314
0.19788385139152787,1.830009342585451,6.620657459982742
0.1984946040192795,1.8297290381219373,6.621357257478829
0.19910535664703113,1.8294492019559982,6.622115284937474
0.19971610927478275,1.8291698504690568,6.622937327543423
0.20032686190253438,1.8288910037251438,6.623829038191264
0.200937614530286,1.8286126853030582,6.624795919974534
0.20154836715803764,1.8283349221206464,6.62584330931505
0.20215911978578927,1.8280577442518564,6.6269763597796
0.20276987241354089,1.827781184737238,6.6282000266292584
0.20338062504129253,1.8275052793885695,6.629519052143307
0.20399137766904415,1.8272300665883057,6.630937951757446
0.2046021302967958,1.8269555870845315,6.632461001051997
0.20521288292454742,1.8266818837821326,6.634092223623958
0.20582363555229904,1.8264090015308732,6.635835379872997
0.2064343881800507,1.8261369869110846,6.637693956728139
0.2070451408078023,1.825865888017659,6.639671158339569
0.2076558934355539,1.8255957542430428,6.641769897755039
0.20826664606330555,1.8253266360599105,6.643992789599119
0.20887739869105718,1.8250585848041911,6.6463421437680585
0.20948815131880882,1.824791652459121,6.648819960151499
0.21009890394656044,1.8245258914409619,6.651427924387466
0.21070965657431207,1.824261354387027,6.6541674046548565
0.2113204092020637,1.8239980939466345,6.657039449503248
0.21193116182981533,1.8237361625755846,6.660044786717029
0.21254191445756698,1.8234756123347433,6.663183823208531
0.2131526670853186,1.8232164946932976,6.666456645929458
0.21376341971307022,1.8229588603372062,6.66986302378803
0.21437417234082187,1.8227027589833706,6.673402410558039
