frequency,refractiveIndex,absorption
0.0006107526277516292,2.623309029632883,0.004327294093065745
0.0012215052555032584,2.6223609727791213,0.0172871839315075
0.0018322578832548875,2.6207868626925226,0.0388140108936904
0.002443010511006517,2.618595575628666,0.06879939632131944
0.003053763138758146,2.6157993402448447,0.107093785779003
0.003664515766509775,2.612413547232937,0.15350854431856564
0.004275268394261404,2.6084565151274273,0.20781854035463182
0.004886021022013034,2.6039492194138742,0.2697651436826248
0.005496773649764663,2.5989149928410256,0.33905955476014427
0.006107526277516292,2.5933792052390645,0.4153863778146342
0.006718278905267922,2.5873689311760777,0.4984073495580059
0.00732903153301955,2.5809126134777145,0.5877651379750555
0.00793978416077118,2.574039730041138,0.6830871313163888
0.008550536788522809,2.566780470556823,0.7839891454557438
0.009161289416274438,2.559165428777464,0.8900789874919777
0.009772042044026067,2.55122531491074,1.0009598242113282
0.010382794671777697,2.542990691623617,1.116233315143521
0.010993547299529326,2.5344917360846138,1.235502480895506
0.011604299927280955,2.5257580294796638,1.3583742877812766
0.012215052555032585,2.5168183745487367,1.4844619391509388
0.012825805182784214,2.5077006409238796,1.6133868720332403
0.013436557810535843,2.4984316374152145,1.7447804646242189
0.014047310438287471,2.4890370098903314,1.8782854657465389
0.0146580630660391,2.479541163019364,2.0135571617086656
0.015268815693790731,2.469967203901672,2.150264299099335
0.01587956832154236,2.4603369054373623,2.2880897840869623
0.01649032094929399,2.4506706872419532,2.42673117990031
0.017101073577045618,2.4409876119096254,2.5659010244975398
0.01771182620479725,2.4313053944947427,2.70532699013862
0.018322578832548876,2.4216404231878097,2.844751905798115
0.018933331460300507,2.412007789298978,2.9839336622228383
0.019544084088052135,2.402421324818171,3.122645018059797
0.020154836715803762,2.3928936459872983,3.2606733239500993
0.020765589343555393,2.383436201489594,3.397820179880228
0.02137634197130702,2.374059324027968,3.5339010394638706
0.021987094599058652,2.364772284224891,3.6687447732444465
0.02259784722681028,2.355583345927015,3.802193201591508
0.02320859985456191,2.3464998221372433,3.934100606340869
0.023819352482313542,2.337528130923991,4.064333229011169
0.02443010511006517,2.328673850771334,4.192768762228032
0.025040857737816797,2.319941774935056,4.319295839904069
0.025651610365568428,2.311335964458507,4.443813530755888
0.026262362993320056,2.3028597995792968,4.566230838886435
0.026873115621071687,2.2945160293243276,4.686466214412732
0.027483868248823314,2.2863068191470686,4.804447076470978
0.028094620876574942,2.2782337965086126,4.9201093503723365
0.028705373504326573,2.270298094343694,5.033397020206266
0.0293161261320782,2.2625003923855074,5.144261697784732
0.029926878759829835,2.2548409563497356,5.252662208482523
0.030537631387581463,2.247319674999487,5.358564194247114
0.03114838401533309,2.239936095129593,5.461939733820122
0.03175913664308472,2.2326894545216893,5.562766980024882
0.03236988927083635,2.225578712931102,5.661029813822264
0.03298064189858798,2.218602581173651,5.756717514719328
0.03359139452633961,2.211759548385113,5.849824447021918
0.034202147154091235,2.205047907529139,5.940349761354607
0.03481289978184286,2.19846577923068,6.028297110819914
0.0354236524095945,2.19201113401244,6.113674381136685
0.036034405037346125,2.185681813011008,6.196493434075783
0.03664515766509775,2.179475547248064,6.276769863502582
0.03725591029284938,2.173389975530074,6.35452276333521
0.037866662920601014,2.1674226610475706,6.429774506734317
0.038477415548352635,2.161571106742577,6.502550535853758
0.03908816817610427,2.155832769509922,6.572879161498282
0.039698920803855904,2.150205073295388,6.640791372056481
0.040309673431607525,2.144685421150731,6.706320651101239
0.04092042605935916,2.1392712063027886,6.7695028030766045
0.04153117868711079,2.1339598222910587,6.830375786517708
0.04214193131486242,2.128748672225405,6.888979554280303
0.04275268394261404,2.123635177212984,6.945355900285692
0.04336343657036568,2.1186167840009045,6.999548312318251
0.043974189198117304,2.11369097187884,7.051601830442316
0.04458494182586893,2.108855258883469,7.101562910636312
0.04519569445362056,2.104107207344587,7.149479293272345
0.045806447081372194,2.0994444288106546,7.195399876098553
0.04641719970912382,2.094864588389745,7.2393745914116705
0.04702795233687545,2.0903654085400007,7.281454287134869
0.047638704964627084,2.0859446723421753,7.321690611544065
0.048249457592378704,2.0816002262851896,7.360135901412942
0.04886021022013034,2.077329982594247,7.396843073372212
0.049470962847881966,2.07313192112967,7.431865518303461
0.050081715475633594,2.0690040908833645,7.4652569986125235
0.05069246810338522,2.0649446110986096,7.4970715482486545
0.051303220731136856,2.0609516720377443,7.527363375357617
0.05191397335888848,2.057023535421288,7.556186767477657
0.05252472598664011,2.0531585345609904,7.583595999204938
0.053135478614391746,2.0493550742083895,7.609645242273591
0.05374623124214337,2.04561163013954,7.634388478011703
0.054356983869895,2.041926748495717,7.657879412149218
0.05496773649764663,2.0382990448990883,7.680171391968078
0.05557848912539826,2.034727203361568,7.701317325797064
0.056189241753149884,2.0312099750042867,7.72136960486484
0.05679999438090152,2.02774617660443,7.7403800275352115
0.057410747008653146,2.0243346889854865,7.758399725957066
0.05802149963640477,2.0209744552662547,7.77547909516864
0.0586322522641564,2.017664478983339,7.791667724702747
0.059243004891908035,2.014403822101217,7.807014332744085
0.05985375751965967,2.0111916029233634,7.82156670289519
0.06046451014741129,2.0080269939173014,7.835371623608537
0.061075262775162925,2.0049092194659006,7.848474830346988
0.06168601540291455,2.0018375535566424,7.860920950533164
0.06229676803066618,1.9988113174200859,7.8727534513512305
0.0629075206584178,1.9958298771281469,7.8840145904620655
0.06351827328616944,1.992892641162364,7.894745369691679
0.06412902591392107,1.9899990579617626,7.904985491751611
0.0647397785416727,1.9871486134594567,7.914773320046337
0.06535053116942433,1.9843408286166178,7.924145841618702
0.06596128379717596,1.981575256962015,7.933138633282332
0.0665720364249276,1.9788514821447971,7.9417858309830045
0.06718278905267921,1.97616911550781,7.9501201024278245
0.06779354168043085,1.9735277936882416,7.958172623014338
0.06840429430818247,1.9709271762520157,7.965973055087218
0.06901504693593409,1.9683669433678719,7.97354953054204
0.06962579956368573,1.9658467935267316,7.980928636791615
0.07023655219143736,1.9633664413115066,7.988135406101765
0.070847304819189,1.9609256152221377,7.995193308297697
0.07145805744694061,1.9585240555602785,8.002124246834175
0.07206881007469225,1.956161512377682,8.00894855821735
0.07267956270244387,1.9538377434919771,8.01568501475638
0.0732903153301955,1.9515525125732012,8.022350830617961
0.07390106795794714,1.9493055873041056,8.028961671148542
0.07451182058569876,1.9470967376169517,8.035531665422115
0.0751225732134504,1.944925734009177,8.042073421963897
0.07573332584120203,1.9427923459400334,8.048598047593748
0.07634407846895366,1.9406963403099984,8.055115169325322
0.07695483109670527,1.9386374800244797,8.061632959251371
0.0775655837244569,1.9366155226430621,8.068158162336724
0.07817633635220854,1.934630219115294,8.074696127036383
0.07878708897996017,1.9326813126037306,8.081250838647625
0.07939784160771181,1.930768537394744,8.087824955300203
0.08000859423546343,1.9288916178973445,8.094419846481621
0.08061934686321505,1.9270502677300476,8.101035633989882
0.08123009949096668,1.925244188895593,8.107671235199012
0.08184085211871832,1.9234730710431276,8.114324408519392
0.08245160474646994,1.9217365908172301,8.12099180092722
0.08306235737422157,1.9200344112930163,8.127668997436178
0.08367311000197321,1.918366181496304,8.134350572376057
0.08428386262972484,1.916731536007709,8.141030142342645
0.08489461525747646,1.9151300946493242,8.147700420676392
0.08550536788522808,1.9135614622524848,8.15435327332592
0.08611612051297972,1.9120252285049752,8.160979775948471
0.08672687314073135,1.9105209678758615,8.167570272096633
0.08733762576848299,1.909048239616013,8.17411443233851
0.08794837839623461,1.9076065878322168,8.180601314156492
0.08855913102398623,1.9061955416326872,8.187019422467678
0.08916988365173786,1.9048146153416128,8.19335677060874
0.0897806362794895,1.90346330878031,8.199600941625933
0.09039138890724112,1.9021411076124088,8.20573914971184
0.09100214153499275,1.9008474837504041,8.211758301628734
0.09161289416274439,1.8995818958208281,8.217645057961345
0.09222364679049602,1.8983437896851743,8.223385894039295
0.09283439941824764,1.897132599013665,8.228967160374214
0.09344515204599926,1.8959477459088414,8.234375142455468
0.0940559046737509,1.8947886415759154,8.239596119752344
0.09466665730150253,1.8936546870367499,8.244616423771529
0.09527740992925417,1.892545273884273,8.249422495023609
0.09588816255700579,1.8914597850741137,8.25400093875335
0.09649891518475741,1.8903975957501853,8.25833857929481
0.09710966781250904,1.8893580741009042,8.262422512914242
0.09772042044026068,1.8883405822427584,8.2662401590104
0.09833117306801231,1.887344477127852,8.269779309544807
0.09894192569576393,1.8863691114721215,8.27302817658266
0.09955267832351557,1.8854138347008536,8.27597543782749
0.10016343095126719,1.8844779939082021,8.27861028004205
0.10077418357901882,1.883560934827372,8.28092244025211
0.10138493620677044,1.882662002808191,8.282902244637844
0.10199568883452208,1.8817805437988187,8.284540645024142
0.10260644146227371,1.880915905328373,8.285829252888515
0.10321719409002535,1.8800674374873267,8.286760370813766
0.10382794671777695,1.8792344939025485,8.287327021318708
0.10443869934552859,1.878416432703965,8.287522973010478
0.10504945197328022,1.8776126174798775,8.287342764008862
0.10566020460103186,1.8768224182180324,8.286781722601361
0.10627095722878349,1.8760452122296636,8.28583598509784
0.10688170985653511,1.8752803850537905,8.284502510860051
0.10749246248428675,1.8745273313391755,8.282779094492419
0.10810321511203837,1.8737854557014428,8.280664375186626
0.10871396773979,1.8730541735529733,8.278157843224243
0.10932472036754162,1.8723329119033247,8.275259843647294
0.10993547299529326,1.871621110128027,8.271971577118189
0.11054622562304489,1.8709182207037591,8.2682950979962
0.11115697825079653,1.8702237099080259,8.26423330966902
0.11176773087854816,1.8695370584816033,8.259789957183223
0.11237848350629977,1.868857762252169,8.254969617228038
0.1129892361340514,1.8681853327176594,8.249777685533013
0.11359998876180304,1.8675192975880708,8.244220361748138
0.11421074138955467,1.8668592012845469,8.23830463188323
0.11482149401730629,1.866204605394759,8.232038248388438
0.11543224664505793,1.865555089083741,8.225429707966217
0.11604299927280955,1.864910249459485,8.218488227210564
0.11665375190056118,1.8642697018927636,8.211223716175057
0.1172645045283128,1.8636330802907923,8.203646749976729
0.11787525715606444,1.8630000373245037,8.195768538548734
0.11848600978381607,1.8623702446093449,8.187600894658432
0.1190967624115677,1.8617433928396665,8.179156200311231
0.11970751503931934,1.8611191918769112,8.170447371666722
0.12031826766707095,1.86049737079195,8.161487822593154
0.12092902029482258,1.8598776778620556,8.15229142699273
0.12153977292257422,1.859259880523135,8.14287248002989
0.12215052555032585,1.8586437652779724,8.133245658397648
0.12276127817807747,1.8580291375613474,8.123425979758284
0.1233720308058291,1.8574158215630412,8.113428761495825
0.12398278343358073,1.8568036600098154,8.10326957891651
0.12459353606133236,1.8561925139075934,8.09296422303602
0.125204288689084,1.8555822622451452,8.08252865808879
0.1258150413168356,1.8549728016607008,8.071978978896214
0.12642579394458725,1.8543640460729691,8.061331368226565
0.12703654657233887,1.8537559262781569,8.050602054280333
0.12764729920009052,1.8531483895146332,8.039807268429888
0.12825805182784214,1.852541398996952,8.028963203340789
0.12886880445559376,1.8519349334210238,8.018085971599675
0.1294795570833454,1.8513289864422566,8.007191564967885
0.13009030971109703,1.8507235661285506,7.996295814379427
0.13070106233884865,1.8501186943900565,7.9854143507951925
0.13131181496660027,1.849514406387649,7.97456256702142
0.13192256759435192,1.8489107499220827,7.963755580597171
0.13253332022210354,1.848307784805821,7.953008197848991
0.1331440728498552,1.8477055822195372,7.942334879206499
0.13375482547760678,1.847104224055292,7.931749705867656
0.13436557810535843,1.846503802248388,7.921266347895942
0.13497633073311005,1.8459044180998927,7.910898033826976
0.1355870833608617,1.8453061815918155,7.900657521856255
0.13619783598861332,1.8447092106968859,7.890557072672605
0.13680858861636494,1.8441136306848827,7.880608423997691
0.13741934124411656,1.8435195734273977,7.870822766884049
0.13803009387186818,1.8429271767029167,7.861210723819844
0.13864084649961983,1.8423365835040357,7.851782328680805
0.13925159912737145,1.8417479413485953,7.842547008564253
0.1398623517551231,1.8411614015964695,7.83351356753453
0.14047310438287472,1.8405771187736832,7.824690172302367
0.14108385701062634,1.8399952499054886,7.816084339854669
0.141694609638378,1.8394159538599584,7.8077029270456215
0.1423053622661296,1.8388393907036065,7.79955212215406
0.14291611489388123,1.8382657210704576,7.791637438405892
0.14352686752163288,1.8376951055459583,7.783963709455159
0.1441376201493845,1.837127704067004,7.776535086811249
0.14474837277713615,1.8365636753393282,7.769355039195009
0.14535912540488774,1.8360031762734041,7.762426353800666
0.14596987803263936,1.8354463614399368,7.755751139435503
0.146580630660391,1.8348933825459528,7.7493308315045395
0.14719138328814263,1.8343443879324226,7.743166198802433
0.14780213591589428,1.8337995220942596,7.737257352070727
0.1484128885436459,1.8332589252234786,7.731603754272926
0.14902364117139752,1.8327227327762068,7.726204232537943
0.14963439379914917,1.8321910750641761,7.721056991715955
0.1502451464269008,1.831664076871232,7.716159629489083
0.15085589905465244,1.831141857095331,7.711509152974262
0.15146665168240406,1.8306245284164229,7.707101996753443
0.15207740431015568,1.8301121969905245,7.702934042262612
0.15268815693790733,1.829604962170238,7.699000638468149
0.15329890956565892,1.8291029162518733,7.695296623756802
0.15390966219341054,1.828606144249281,7.691816348963715
0.1545204148211622,1.828114723694415,7.688553701458303
0.1551311674489138,1.827628724464588,7.685502130209784
0.15574192007666546,1.8271482086363056,7.682654671749275
0.15635267270441708,1.8266732303655069,7.680003976944406
0.1569634253321687,1.8262038357939705,7.677542338503234
0.15757417795992035,1.8257400629815828,7.6752617191206545
0.15818493058767197,1.8252819418641075,7.673153780181455
0.15879568321542362,1.824829494236039,7.671209910932904
0.15940643584317524,1.8243827337580563,7.669421258039494
0.16001718847092686,1.8239416659885561,7.667778755433301
0.1606279410986785,1.8235062884386783,7.666273154372177
0.1612386937264301,1.8230765906501951,7.664895053619117
0.16184944635418172,1.8226525542955854,7.663634929657236
0.16246019898193337,1.822234153299573,7.662483166854919
0.163070951609685,1.82182135398137,7.66143008749646
0.16368170423743664,1.821414115216814,7.660465981596364
0.16429245686518826,1.821012388619567,7.659581136414191
0.16490320949293988,1.8206161187404997,7.658765865592235
0.16551396212069153,1.820225243284355,7.658010537835794
0.16612471474844315,1.819839693342763,7.65730560506214
0.1667354673761948,1.8194593936426358,7.656641629942994
0.16734622000394642,1.8190842628089754,7.6560093127701485
0.16795697263169804,1.8187142136410746,7.655399517574849
0.16856772525944969,1.8183491534011016,7.654803297435628
0.16917847788720128,1.817988984114024,7.6542119189105415
0.16978923051495293,1.8176336028778273,7.653616885535076
0.17039998314270455,1.8172829021829655,7.653009960327319
0.17101073577045617,1.816936770239982,7.652383187248021
0.17162148839820782,1.816595091314227,7.6517289115647396
0.17223224102595944,1.8162577460666058,7.651039799073887
0.17284299365371106,1.8159246118992787,7.650308854137431
0.1734537462814627,1.8155955633052574,7.649529436495161
0.17406449890921433,1.8152704722208306,7.6486952768171514
0.17467525153696598,1.8149492083797731,7.6478004909651975
0.1752860041647176,1.8146316396682955,7.646839592935215
0.17589675679246922,1.8143176324797172,7.6458075064577
0.17650750942022086,1.8140070520678482,7.644699575236814
0.17711826204797246,1.813699762898097,7.643511571811851
0.1777290146757241,1.8133956289953395,7.642239705031647
0.17833976730347573,1.8130945142875945,7.640880626132976
0.17895051993122735,1.8127962829446091,7.639431433421484
0.179561272558979,1.8125007997104488,7.637889675555449
0.18017202518673062,1.812207930229238,7.636253353437634
0.18078277781448224,1.8119175413632373,7.634520920724967
0.18139353044223389,1.811629501502446,7.632691282968835
0.1820042830699855,1.81134368086499,7.630763795403172
0.18261503569773715,1.8110599517875674,7.628738259401522
0.18322578832548878,1.810778189005281,7.62661491762749
0.1838365409532404,1.8104982699202035,7.624394447907358
0.18444729358099204,1.8102200748580985,7.622077955856354
0.18505804620874364,1.8099434873127236,7.619666966294281
0.18566879883649529,1.8096683941772154,7.6171634134889326
0.1862795514642469,1.8093946859620886,7.614569630269048
0.18689030409199853,1.809122256999427,7.611888336052184
0.18750105671975018,1.8088510056328906,7.609122623834083
0.1881118093475018,1.8085808343932186,7.60627594619103
0.18872256197525342,1.8083116501589362,7.603352100347511
0.18933331460300507,1.8080433643020424,7.6003552123642635
0.18994406723075669,1.8077758928184848,7.59728972050431
0.19055481985850833,1.80750915644329,7.59416035783638
0.19116557248625995,1.8072430807502473,7.590972134136405
0.19177632511401158,1.806977596236114,7.5877303171500845
0.19238707774176322,1.8067126383893286,7.584440413280156
0.19299783036951482,1.806448147743293,7.5811081477640165
0.19360858299726647,1.8061840699143024,7.5777394444065465
0.19421933562501809,1.8059203556242678,7.574340404936726
0.1948300882527697,1.8056569607084032,7.570917288053374
0.19544084088052135,1.8053938461081025,7.567476488228702
0.19605159350827298,1.8051309778492626,7.564024514337009
0.19666234613602462,1.8048683270063572,7.560567968175715
0.19727309876377624,1.804605869652596,7.557113522946179
0.19788385139152787,1.8043435867965414,7.553667901760322
0.1984946040192795,1.8040814643056018,7.550237856239699
0.19910535664703113,1.8038194928168296,7.546830145270735
0.19971610927478275,1.8035576676355056,7.5434515139803215
0.20032686190253438,1.8032959886220084,7.540108672994304
0.200937614530286,1.803034460067501,7.536808278038975
0.20154836715803764,1.8027730905589834,7.533556909944967
0.20215911978578927,1.802511892834294,7.530361055110813
0.20276987241354089,1.8022508836276558,7.527227086480832
0.20338062504129253,1.8019900835063858,7.524161245090392
0.20399137766904415,1.8017295166993996,7.521169622229743
0.2046021302967958,1.8014692109181627,7.518258142273144
0.20521288292454742,1.8012091971707478,7.515432546220363
0.20582363555229904,1.8009495095696695,7.512698375991941
0.2064343881800507,1.8006901851341723,7.5100609595185155
0.2070451408078023,1.8004312635876623,7.507525396662268
0.2076558934355539,1.8001727871509652,7.505096546002382
0.20826664606330555,1.7999148003321026,7.50277901251771
0.20887739869105718,1.799657349713272,7.500577136192484
0.20948815131880882,1.7994004837357183,7.498494981570704
0.21009890394656044,1.7991442524831793,7.496536328280813
0.21070965657431207,1.798888707464571,7.4947046625470595
0.2113204092020637,1.798633901396584,7.493003169704666
0.21193116182981533,1.7983798879868431,7.491434727727995
0.21254191445756698,1.7981267217182668,7.4900019017817705
0.2131526670853186,1.7978744576352577,7.488706939798884
0.21376341971307022,1.7976231511323317,7.487551769087136
0.21437417234082187,1.7973728577457768,7.486537993963189
0.2149849249685735,1.7971236329489204,7.485666894409133
