frequency,refractiveIndex,absorption
0.0006107526277516292,2.5018818917000227,0.0018853840651488043
0.0012215052555032584,2.5016206039594526,0.007538161630773806
0.0018322578832548875,2.5011856273351247,0.016948224276212776
0.002443010511006517,2.500577713585674,0.030098776048861638
0.003053763138758146,2.4997979098885463,0.04696641007312778
0.003664515766509775,2.4988475536201555,0.06752121478425666
0.004275268394261404,2.4977282657359616,0.09172690878886404
0.004886021022013034,2.496441942816737,0.11954100309745218
0.005496773649764663,2.494990747859706,0.15091498923827343
0.006107526277516292,2.4933770999042904,0.185794551549816
0.006718278905267922,2.491603662591818,0.22411980176398502
0.00732903153301955,2.4896733317664888,0.2658255338359366
0.00793978416077118,2.4875892222313163,0.3108414968509504
0.008550536788522809,2.4853546537773625,0.3590926837446188
0.009161289416274438,2.482973136607451,0.41049963351005136
0.009772042044026067,2.4804483562768707,0.4649787445346299
0.010382794671777697,2.4777841582730287,0.5224425967073424
0.010993547299529326,2.474984532354312,0.5828002799650148
0.011604299927280955,2.4720535967648307,0.645957726999248
0.012215052555032585,2.46899558243736,0.7118180479233664
0.012825805182784214,2.465814817290875,0.7802818647973017
0.013436557810535843,2.462515710722543,0.8512476440251152
0.014047310438287471,2.459102738386573,0.9246120247721604
0.0146580630660391,2.4555804273442177,1.0002701416926396
0.015268815693790731,2.4519533416607766,1.0781159404116103
0.01587956832154236,2.4482260685167474,1.158042484364588
0.01649032094929399,2.4444032048912723,1.2399422517601122
0.017101073577045618,2.4404893448672818,1.3237074215936433
0.01771182620479725,2.4364890675989805,1.4092301478025329
0.018322578832548876,2.432406925973863,1.4964028208089364
0.018933331460300507,2.4282474359933914,1.5851183158496935
0.019544084088052135,2.424015066888756,1.6752702276364446
0.020154836715803762,2.4197142319809912,1.766753091025894
0.020765589343555393,2.415349280288167,1.8594625875069182
0.02137634197130702,2.4109244888761703,1.9532957374280189
0.021987094599058652,2.4064440559443487,2.0481510779953345
0.02259784722681028,2.4019120946322783,2.143928827166911
0.02320859985456191,2.3973326275297455,2.2405310336540345
0.023819352482313542,2.39270958186844,2.3378617133148993
0.02443010511006517,2.3880467853706007,2.435826972289758
0.025040857737816797,2.383347962727524,2.5343351172811857
0.025651610365568428,2.378616732678664,2.6332967534275564
0.026262362993320056,2.3738566056605555,2.7326248702541855
0.026873115621071687,2.369070981993681,2.832234916213932
0.027483868248823314,2.364263150574637,2.9320448623498
0.028094620876574942,2.3594362880406967,3.0319752556252366
0.028705373504326573,2.3545934583736905,3.1319492624752368
0.0293161261320782,2.349737612910516,3.2318927031331928
0.029926878759829835,2.344871590727958,3.3317340772858453
0.030537631387581463,2.339998119370251,3.4314045816009306
0.03114838401533309,2.335119815888723,3.530838119662393
0.03175913664308472,2.3302391881637887,3.6299713048337683
0.03236988927083635,2.3253586364807863,3.7287434565549087
0.03298064189858798,2.3204804553323006,3.8270965905585994
0.03359139452633961,2.315606835420959,3.9249754034748214
0.034202147154091235,2.310739865838023,4.022327252269684
0.03481289978184286,2.30588153639438,4.119102128943999
0.0354236524095945,2.3010337400820493,4.2152526308957805
0.036034405037346125,2.2961982756455623,4.310733927328328
0.03664515766509775,2.291376850244032,4.40550372206375
0.03725591029284938,2.286571082185949,4.499522213100206
0.037866662920601014,2.2817825037201755,4.592752049230263
0.038477415548352635,2.27701256386774,4.6851582840167305
0.03908816817610427,2.272262631280348,4.776708327402984
0.039698920803855904,2.267533997112583,4.867371895215165
0.040309673431607525,2.262827877896026,4.95712095679621
0.04092042605935916,2.258145418404423,5.045929680993665
0.04153117868711079,2.253487694500174,5.133774380707251
0.04214193131486242,2.2488557159532374,5.220633456187175
0.04275268394261404,2.244250429224558,5.306487337258847
0.04336343657036568,2.239672720206891,5.391318424637788
0.043974189198117304,2.235123416916665,5.475111030484164
0.04458494182586893,2.2306032921313377,5.557851318336872
0.04519569445362056,2.2261130659673327,5.639527242555305
0.045806447081372194,2.221653408394261,5.720128487387286
0.04641719970912382,2.217224941681803,5.7996464057735535
0.04702795233687545,2.2128282427760615,5.878073957990432
0.047638704964627084,2.2084638456028336,5.955405650225064
0.048249457592378704,2.204132243295621,6.0316374731718545
0.04886021022013034,2.199833890346655,6.106766840731433
0.049470962847881966,2.195569204679651,6.180792528889309
0.050081715475633594,2.1913385696433276,6.2537146148463325
0.05069246810338522,2.1871423359250803,6.3255344164686225
0.051303220731136856,2.1829808233845283,6.396254432121094
0.05191397335888848,2.1788543228068997,6.465878280945693
0.05252472598664011,2.1747630975765193,6.534410643641824
0.053135478614391746,2.1707073852708736,6.601857203804727
0.05374623124214337,2.1666873991759856,6.668224589875274
0.054356983869895,2.162703329723943,6.73352031775139
0.05496773649764663,2.1587553458537476,6.797752734111934
0.05557848912539826,2.1548435962966583,6.86093096049987
0.056189241753149884,2.1509682107874943,6.923064838212396
0.05679999438090152,2.1471293012033805,6.984164874042499
0.057410747008653146,2.1433269626316425,7.044242186917342
0.05802149963640477,2.139561274368585,7.10330845547574
0.0586322522641564,2.135832300851061,7.161375866628257
0.059243004891908035,2.1321400925227443,7.218457065140132
0.05985375751965967,2.1284846866371927,7.274565104279044
0.06046451014741129,2.124866107999782,7.3297133975659365
0.061075262775162925,2.1212843696506813,7.383915671668838
0.06168601540291455,2.117739473491095,7.437185920476694
0.06229676803066618,2.1142314108550466,7.489538360389876
0.0629075206584178,2.1107601630289805,7.540987386864251
0.06351827328616944,2.1073257017215443,7.591547532241262
0.06412902591392107,2.1039279894858773,7.64123342489892
0.0647397785416727,2.1005669800968074,7.690059749755317
0.06535053116942433,2.0972426188853044,7.7380412101544
0.06596128379717596,2.0939548430325967,7.785192491163793
0.0665720364249276,2.0907035818263346,7.831528224311839
0.06718278905267921,2.0874887568811524,7.877062953788947
0.06779354168043085,2.0843102823260184,7.921811104137713
0.06840429430818247,2.0811680649607114,7.965786949453418
0.06901504693593409,2.0780620043837206,8.009004584114301
0.06962579956368573,2.0749919930938976,8.051477895060144
0.07023655219143736,2.0719579165680995,8.093220535633682
0.070847304819189,2.06895965331704,8.134245900998744
0.07145805744694061,2.0659970749215564,8.174567105145421
0.07206881007469225,2.0630700460513998,8.214196959490875
0.07267956270244387,2.060178424468656,8.253147953081138
0.0732903153301955,2.057322061017831,8.291432234397762
0.07390106795794714,2.0545007996045657,8.32906159476922
0.07451182058569876,2.0517144771649174,8.366047453385226
0.0751225732134504,2.048962923627048,8.402400843909131
0.07573332584120203,2.046245961867141,8.438132402681047
0.07634407846895366,2.0435634076612215,8.47325235850051
0.07695483109670527,2.0409150696345986,8.507770523976884
0.0775655837244569,2.0383007492104652,8.541696288430824
0.07817633635220854,2.0357202405591877,8.57503861232834
0.07878708897996017,2.0331733305497175,8.60780602322643
0.07939784160771181,2.030659798704488,8.640006613206475
0.08000859423546343,2.028179417159068,8.671648037768243
0.08061934686321505,2.025731950627798,8.702737516156061
0.08123009949096668,2.023317156376506,8.73328183308494
0.08184085211871832,2.0209347842033827,8.763287341833054
0.08245160474646994,2.0185845764289505,8.792759968663304
0.08306235737422157,2.016266267896048,8.821705218536149
0.08367311000197321,2.013979585980612,8.850128182071584
0.08428386262972484,2.0117242506140034,8.878033543718036
0.08489461525747646,2.009499974317543,8.905425591082942
0.08550536788522808,2.0073064622497965,8.93230822537677
0.08611612051297972,2.0051434122671536,8.958684972923193
0.08672687314073135,2.003010514998101,8.984558997683642
0.08733762576848299,2.0009074539315588,9.009933114745094
0.08794837839623461,1.9988339055195532,9.034809804716152
0.08855913102398623,1.99678953929444,9.059191228977715
0.08916988365173786,1.9947740180008235,9.08307924573128
0.0897806362794895,1.992786997742261,9.106475426788078
0.09039138890724112,1.9908281281427482,9.129381075040824
0.09100214153499275,1.9888970525229406,9.151797242558125
0.09161289416274439,1.9869934080910137,9.173724749243574
0.09222364679049602,1.9851168261479875,9.195164201997503
0.09283439941824764,1.9832669323072862,9.216116014321601
0.09344515204599926,1.9814433467282704,9.23658042630552
0.0940559046737509,1.9796456843634018,9.256557524933202
0.09466665730150253,1.97787355521868,9.276047264648923
0.09527740992925417,1.9761265646269006,9.295049488120997
0.09588816255700579,1.9744043135333071,9.31356394714271
0.09649891518475741,1.9727063987930968,9.3315903236091
0.09710966781250904,1.9710324134802486,9.349128250510779
0.09772042044026068,1.9693819472070828,9.366177332882998
0.09833117306801231,1.9677545864539454,9.382737168653488
0.09894192569576393,1.9661499149083532,9.398807369329102
0.09955267832351557,1.9645675138129322,9.414387580465048
0.10016343095126719,1.9630069623214323,9.429477501859528
0.10077418357901882,1.9614678378621027,9.444076907420802
0.10138493620677044,1.9599497165076598,9.458185664650209
0.10199568883452208,1.9584521733510856,9.471803753691336
0.10260644146227371,1.9569747828864579,9.484931285892475
0.10321719409002535,1.9555171193940102,9.497568521834399
0.10382794671777695,1.9540787573286051,9.509715888775109
0.10443869934552859,1.952659271710785,9.521373997465613
0.10504945197328022,1.9512582385195698,9.532543658293687
0.10566020460103186,1.9498752350861408,9.543225896711727
0.10627095722878349,1.9485098404875798,9.55342196791097
0.10688170985653511,1.9471616359398092,9.563133370702337
0.10749246248428675,1.94583020518886,9.57236186056898
0.10810321511203837,1.9445151348996537,9.581109461857585
0.10871396773979,1.943216015041417,9.589378479076393
0.10932472036754162,1.9419324392689195,9.597171507272439
0.10993547299529326,1.940664005298687,9.604491441461041
0.11054622562304489,1.939410315279372,9.61134148508483
0.11115697825079653,1.9381709761554826,9.617725157480521
0.11176773087854816,1.9369456000236651,9.623646300336585
0.11237848350629977,1.9357338044807695,9.629109083124414
0.1129892361340514,1.9345352129629327,9.63411800749223
0.11359998876180304,1.933349455074953,9.638677910610474
0.11421074138955467,1.932176166909222,9.642793967461998
0.11482149401730629,1.9310149913535317,9.64647169207321
0.11543224664505793,1.9298655783870855,9.649716937683559
0.11604299927280955,1.9287275853640726,9.652535895856806
0.11665375190056118,1.9276006772841927,9.654935094536455
0.1172645045283128,1.9264845270495523,9.656921395053935
0.11787525715606444,1.9253788157073775,9.658501988098811
0.11848600978381607,1.9242832326780392,9.659684388665175
0.1190967624115677,1.923197475967895,9.660476429988051
0.11970751503931934,1.9221212523665105,9.660886256490436
0.12031826766707095,1.9210542776278654,9.66092231576104
0.12092902029482258,1.919996276635146,9.660593349586875
0.12153977292257422,1.9189469835488269,9.65990838406742
0.12215052555032585,1.9179061419377437,9.658876718839812
0.12276127817807747,1.9168735048928915,9.657507915445827
0.1233720308058291,1.9158488351237875,9.65581178487578
0.12398278343358073,1.9148319050371918,9.653798374324765
0.12459353606133236,1.9138224967981055,9.651477953199562
0.125204288689084,1.9128204023729505,9.648860998418431
0.1258150413168356,1.9118254235549164,9.645958179043793
0.12642579394458725,1.9108373719714806,9.642780340294411
0.12703654657233887,1.9098560690741693,9.639338486982124
0.12764729920009052,1.9088813461106644,9.63564376642068
0.12825805182784214,1.9079130440793932,9.631707450856034
0.12886880445559376,1.906951013666809,9.627540919468974
0.1294795570833454,1.9059951151675876,9.62315564000041
0.13009030971109703,1.9050452183880184,9.61856315005286
0.13070106233884865,1.9041012025329143,9.613775038121032
0.13131181496660027,1.9031629560763914,9.608802924405003
0.13192256759435192,1.902230376616923,9.603658441461265
0.13253332022210354,1.9013033707171032,9.59835321474562
0.1331440728498552,1.9003818537285961,9.592898843103061
0.13375482547760678,1.8994657496027691,9.587306879259367
0.13436557810535843,1.8985549906875705,9.581588810369261
0.13497633073311005,1.8976495175112051,9.575756038674761
0.1355870833608617,1.8967492785532312,9.569819862328478
0.13619783598861332,1.8958542300036954,9.563791456433744
0.13680858861636494,1.894964335510981,9.557681854354596
0.13741934124411656,1.894079565919029,9.551501929345738
0.13803009387186818,1.8931998989946661,9.545262376554211
0.13864084649961983,1.8923253191457396,9.538973695439205
0.13925159912737145,1.8914558171308125,9.532646172658696
0.1398623517551231,1.8905913897611726,9.526289865467941
0.14047310438287472,1.8897320395959338,9.519914585674092
0.14108385701062634,1.8888777746309944,9.513529884188165
0.141694609638378,1.8880286079826558,9.507145036215041
0.1423053622661296,1.8871845575666915,9.500769027118972
0.14291611489388123,1.8863456457736598,9.494410539001514
0.14352686752163288,1.885511899141262,9.488077938022977
0.1441376201493845,1.8846833480245515,9.481779262501496
0.14474837277713615,1.8838600262647722,9.475522211816486
0.14535912540488774,1.8830419708576318,9.46931413614302
0.14596987803263936,1.8822292216217744,9.463162027041884
0.146580630660391,1.8814218208682396,9.457072508924737
0.14719138328814263,1.8806198130716523,9.45105183141506
0.14780213591589428,1.879823244543894,9.445105862618334
0.1484128885436459,1.8790321631109874,9.439240083316777
0.14902364117139752,1.878246617793897,9.43345958209792
0.14963439379914917,1.877466658493947,9.427769051425479
0.1502451464269008,1.8766923356835183,9.422172784657096
0.15085589905465244,1.8759237001026732,9.416674674012313
0.15146665168240406,1.8751608024623458,9.411278209489891
0.15207740431015568,1.8744036931546704,9.405986478732455
0.15268815693790733,1.8736524219710529,9.400802167832973
0.15329890956565892,1.872907037828496,9.395727563074784
0.15390966219341054,1.8721675885047262,9.390764553596236
0.1545204148211622,1.871434120382585,9.385914634965722
0.1551311674489138,1.8707066782041555,9.381178913653535
0.15574192007666546,1.869985304835048,9.376558112382872
0.15635267270441708,1.8692700410392333,9.372052576339838
0.1569634253321687,1.8685609252647952,9.367662280222428
0.15757417795992035,1.8678579934409298,9.363386836103532
0.15818493058767197,1.8671612787864835,9.35922550208318
0.15879568321542362,1.8664708116303128,9.355177191702676
0.15940643584317524,1.8657866192436785,9.351240484090978
0.16001718847092686,1.865108725684894,9.347413634813517
0.1606279410986785,1.8644371516563811,9.34369458738991
0.1612386937264301,1.8637719143742868,9.340080985447953
0.16184944635418172,1.863113027450741,9.336570185477564
0.16246019898193337,1.862460500788855,9.333159270148995
0.163070951609685,1.8618143404904868,9.329845062157947
0.16368170423743664,1.86117454877678,9.326624138557696
0.16429245686518826,1.860541123921472,9.323492845539905
0.16490320949293988,1.8599140601969109,9.320447313623164
0.16551396212069153,1.8592933478327007,9.317483473207384
0.16612471474844315,1.8586789729868816,9.314597070453605
0.1667354673761948,1.8580709177294954,9.311783683446079
0.16734622000394642,1.8574691600383841,9.309038738592642
0.16795697263169804,1.8568736738070293,9.306357527222563
0.16856772525944969,1.8562844288642273,9.303735222337187
0.16917847788720128,1.855701391005347,9.301166895469267
0.16978923051495293,1.8551245220349288,9.29864753360894
0.17039998314270455,1.854553779820326,9.296172056152086
0.17101073577045617,1.8539891183560882,9.293735331827477
0.17162148839820782,1.8534304878387586,9.29133219556049
0.17223224102595944,1.8528778347517485,9.288957465230991
0.17284299365371106,1.8523311019599011,9.286605958281749
0.1734537462814627,1.8517902288133912,9.284272508137589
0.17406449890921433,1.8512551512605282,9.2819519803932
0.17467525153696598,1.8507258019690795,9.279639288730149
0.1752860041647176,1.850202110455652,9.27732941052298
0.17589675679246922,1.8496840032227078,9.27501740209718
0.17650750942022086,1.8491714039027496,9.272698413600134
0.17711826204797246,1.8486642334092038,9.270367703450134
0.1777290146757241,1.8481624100935257,9.268020652327868
0.17833976730347573,1.847665849908031,9.265652776675566
0.17895051993122735,1.847174466573965,9.263259741673558
0.179561272558979,1.8466881717542916,9.260837373660815
0.18017202518673062,1.8462068752307013,9.25838167197119
0.18078277781448224,1.845730485084318,9.255888820157448
0.18139353044223389,1.845258907879576,9.25335519657574
0.1820042830699855,1.84479204885076,9.250777384307154
0.18261503569773715,1.844329812090661,9.248152180391852
0.18322578832548878,1.8438721007408492,9.245476604356801
0.1838365409532404,1.8434188171830101,9.24274790601621
0.18444729358099204,1.842969863230841,9.23996357252753
0.18505804620874364,1.842525140321984,9.237121334689405
0.18566879883649529,1.8420845497094671,9.234219172466203
0.1862795514642469,1.8416479926521627,9.231255319729724
0.18689030409199853,1.8412153706037413,9.228228268207904
0.18750105671975018,1.840786585399634,9.225136770634563
0.1881118093475018,1.840361539441513,9.221979843094514
0.18872256197525342,1.8399401358788128,9.21875676656265
0.18933331460300507,1.8395222787868284,9.215467087635865
0.18994406723075669,1.8391078733409283,9.212110618459768
0.19055481985850833,1.8386968259864533,9.208687435854745
0.19116557248625995,1.8382890446038622,9.205197879647478
0.19177632511401158,1.8378844386687263,9.201642550216796
0.19238707774176322,1.8374829194061646,9.198022305263232
0.19299783036951482,1.837084399939358,9.19433825581755
0.19360858299726647,1.8366887954317697,9.19059176150114
0.19421933562501809,1.8362960232227425,9.186784425056542
0.1948300882527697,1.8359060029561525,9.182918086166884
0.19544084088052135,1.8355186567018165,9.178994814585758
0.19605159350827298,1.8351339090693877,9.175016902600557
0.19666234613602462,1.8347516873144736,9.170986856853995
0.19727309876377624,1.8343719214367578,9.166907389551449
0.19788385139152787,1.833994544269911,9.162781409081756
0.1984946040192795,1.8336194915631174,9.158612010082956
0.19910535664703113,1.8332467020540482,9.154402462983535
0.19971610927478275,1.832876117533165,9.15015620305376
0.20032686190253438,1.8325076828992337,9.14587681900074
0.200937614530286,1.8321413462059741,9.141568041143527
0.20154836715803764,1.831777058699791,9.13723372920655
0.20215911978578927,1.8314147748485552,9.13287785976755
0.20276987241354089,1.8310544523614312,9.128504513400625
0.20338062504129253,1.8306960521997788,9.124117861553835
0.20399137766904415,1.8303395385791708,9.119722153202257
0.2046021302967958,1.829984878962602,9.115321701317164
0.20521288292454742,1.8296320440449934,9.110920869193457
0.20582363555229904,1.8292810077291082,9.106524056677044
0.2064343881800507,1.8289317470930264,9.102135686333707
0.2070451408078023,1.8285842423493581,9.097760189602823
0.2076558934355539,1.8282384767963764,9.093401992976112
0.20826664606330555,1.8278944367612961,9.08906550424512
0.20887739869105718,1.8275521115359241,9.08475509885659
0.20948815131880882,1.8272114933049526,9.080475106418525
0.21009890394656044,1.8268725770671583,9.076229797395976
0.21070965657431207,1.8265353605498085,9.072023370036028
0.2113204092020637,1.8261998441165896,9.067859937561103
0.21193116182981533,1.8258660306693786,9.063743515667475
0.21254191445756698,1.8255339255442045,9.059678010365646
0.2131526670853186,1.8252035364017627,9.055667206197688
0.21376341971307022,1.8248748731128432,9.051714754865463
0.21437417234082187,1.8245479476390567,9.047824164302135
0.2149849249685735,1.8242227739092536,9.043998788217134
