frequency,refractiveIndex,absorption
0.0006107526277516292,2.786576370761114,0.0056844984861178435
0.0012215052555032584,2.785015726276376,0.022697309334941226
0.0018322578832548875,2.7824282873129143,0.05091723838882169
0.002443010511006517,2.7788341792973332,0.09014512204946669
0.003053763138758146,2.7742609390265143,0.14010793417230613
0.003664515766509775,2.7687429116193476,0.20046428018110923
0.004275268394261404,2.7623205230594263,0.2708110464581608
0.004886021022013034,2.755039459089132,0.35069093738505813
0.005496773649764663,2.7469497830750647,0.43960061478083157
0.006107526277516292,2.7381050252499617,0.5369991544717222
0.006718278905267922,2.728561273695489,0.6423165503610168
0.00732903153301955,2.71837629394434,0.7549620245624541
0.00793978416077118,2.7076086995996858,0.8743319392139033
0.008550536788522809,2.6963171913571116,0.9998171476659392
0.009161289416274438,2.6845598766920102,1.130809666283983
0.009772042044026067,2.672393677595061,1.2667085901239008
0.010382794671777697,2.659873829359641,1.406925213975356
0.010993547299529326,2.6470534697135064,1.5508873532199337
0.011604299927280955,2.633983314621645,1.698042885844629
0.012215052555032585,2.620711414874856,1.847862557612725
0.012825805182784214,2.6072829860721916,1.9998421071123187
0.013436557810535843,2.5937403037225146,2.153503776784177
0.014047310438287471,2.580122654829225,2.3083972808622044
0.0146580630660391,2.566466337374837,2.464100302300652
0.015268815693790731,2.5528046994845917,2.6202185890621514
0.01587956832154236,2.539168210626439,2.776385716378666
0.01649032094929399,2.5255845579183487,2.9322625764565258
0.017101073577045618,2.5120787613974125,3.087536651141317
0.01771182620479725,2.4986733029076906,3.2419211167394595
0.018322578832548876,2.485388264047865,3.395153823852223
0.018933331460300507,2.472241469359287,3.5469961889612676
0.019544084088052135,2.459248631613761,3.697232028779613
0.020154836715803762,2.4464234966689364,3.8456663631488723
0.020765589343555393,2.433777985894682,3.9921242075758356
0.02137634197130702,2.421322334636425,4.136449372371655
0.021987094599058652,2.4090652255753024,4.2785032817746265
0.02259784722681028,2.3970139161748594,4.418163823370748
0.02320859985456191,2.385174359676458,4.555324235535404
0.023819352482313542,2.373551319327286,4.68989203845702
0.02443010511006517,2.362148475702051,4.821788012519976
0.025040857737816797,2.3509685271189915,4.95094522637295
0.025651610365568428,2.3400132832581217,5.077308115841085
0.026262362993320056,2.3292837521701393,5.200831613918131
0.026873115621071687,2.3187802209228674,5.321480331354121
0.027483868248823314,2.308502330172412,5.439227786806458
0.028094620876574942,2.2984491429721245,5.554055685113924
0.028705373504326573,2.2886192081466645,5.665953241959627
0.0293161261320782,2.2790106185638344,5.774916552988621
0.029926878759829835,2.2696210646351345,5.880948005319189
0.030537631387581463,2.2604478833691855,5.984055729318842
0.03114838401533309,2.2514881032914977,6.0842530884929245
0.03175913664308472,2.242738485530786,6.181558205345834
0.03236988927083635,2.23419556135693,6.275993521112129
0.03298064189858798,2.2258556664396845,6.36758538731211
0.03359139452633961,2.217714972080568,6.45636368715494
0.034202147154091235,2.2097695136538675,6.542361484892434
0.03481289978184286,2.202015216476243,6.625614701308818
0.0354236524095945,2.1944479193087,6.706161813619759
0.036034405037346125,2.187063395679415,6.784043578139813
0.03664515766509775,2.179857373201603,6.859302774164462
0.03725591029284938,2.172825551046984,6.931983967596938
0.037866662920601014,2.1659636157228115,7.002133292932197
0.038477415548352635,2.1592672552885337,7.069798252288927
0.03908816817610427,2.152732172137303,7.135027530256116
0.039698920803855904,2.1463540944573953,7.197870823393146
0.040309673431607525,2.1401287864793224,7.258378683290549
0.04092042605935916,2.1340520576058846,7.316602372164982
0.04153117868711079,2.1281197705145622,7.3725937300232465
0.04214193131486242,2.1223278483144874,7.426405052490399
0.04275268394261404,2.11667228083367,7.478088978453053
0.04336343657036568,2.1111491301061505,7.527698386722689
0.043974189198117304,2.10575453512329,7.575286300975107
0.04458494182586893,2.1004847159083693,7.620905802271478
0.04519569445362056,2.095335976969136,7.664609948512547
0.045806447081372194,2.090304710178704,7.70645170022262
0.04641719970912382,2.085387397131418,7.746483852102419
0.04702795233687545,2.0805806110167637,7.784758969830692
0.047638704964627084,2.0758810180512346,7.821329331633945
0.048249457592378704,2.071285378505033,7.856246874179846
0.04886021022013034,2.066790547357893,7.889563142386706
0.049470962847881966,2.062393474615711,7.921329242774554
0.050081715475633594,2.058091205317467,7.951595800016159
0.05069246810338522,2.05388087925976,7.980412916377271
0.051303220731136856,2.0497597304643387,8.007830133763758
0.05191397335888848,2.0457250864122574,8.033896398122954
0.05252472598664011,2.041774367066558,8.05866002597093
0.053135478614391746,2.037905083703899,8.08216867284335
0.05374623124214337,2.0341148375741205,8.104469303491285
0.054356983869895,2.030401318405369,8.125608163663799
0.05496773649764663,2.0267623027712798,8.14563075334224
0.05557848912539826,2.023195652335484,8.164581801307728
0.056189241753149884,2.019699311987706,8.18250524094312
0.05679999438090152,2.016271307884744,8.199444187186375
0.057410747008653146,2.012909745408696,8.215440914568347
0.05802149963640477,2.0096128070539523,8.230536836280308
0.0586322522641564,2.0063787502536976,8.244772484231632
0.059243004891908035,2.0032059051559337,8.258187490067753
0.05985375751965967,2.0000926723583334,8.270820567129737
0.06046451014741129,1.9970375206106281,8.282709493346404
0.061075262775162925,1.9940389844926087,8.293891095057337
0.06168601540291455,1.9910956620752742,8.304401231773
0.06229676803066618,1.988206212572175,8.314274781884627
0.0629075206584178,1.985369353987441,8.323545629341242
0.06351827328616944,1.9825838607666166,8.33224665131549
0.06412902591392107,1.9798485614559327,8.340409706885023
0.0647397785416727,1.977162336375281,8.348065626756965
0.06535053116942433,1.9745241153097688,8.355244204066507
0.06596128379717596,1.9719328752243874,8.361974186281508
0.0665720364249276,1.9693876380059865,8.368283268245785
0.06718278905267921,1.966887468236445,8.374198086394038
0.06779354168043085,1.9644314710006174,8.37974421417026
0.06840429430818247,1.962018789732382,8.38494615868215
0.06901504693593409,1.959648604101821,8.389827358620147
0.06962579956368573,1.957320127946332,8.394410183470525
0.07023655219143736,1.9550326072482411,8.398715934047855
0.070847304819189,1.952785318161229,8.402764844370457
0.07145805744694061,1.9505775650876933,8.40657608489893
0.07206881007469225,1.9484086788089692,8.410167767156159
0.07267956270244387,1.9462780146700995,8.413556949741501
0.0732903153301955,1.9441849508207,8.416759645750632
0.07390106795794714,1.9421288865132567,8.419790831607243
0.07451182058569876,1.9401092404600262,8.422664457309335
0.0751225732134504,1.9381254492495625,8.425393458089102
0.07573332584120203,1.9361769658237027,8.427989767481304
0.07634407846895366,1.934263258015725,8.43046433179018
0.07695483109670527,1.9323838071502186,8.432827125942087
0.0775655837244569,1.9305381067050866,8.435087170705797
0.07817633635220854,1.9287256610359518,8.437252551258519
0.07878708897996017,1.9269459841631091,8.439330437072245
0.07939784160771181,1.9251985986210483,8.441327103090105
0.08000859423546343,1.9234830343704428,8.443247952158991
0.08061934686321505,1.921798827772386,8.44509753868074
0.08123009949096668,1.920145520624551,8.446879593440412
0.08184085211871832,1.918522659258827,8.448597049566352
0.08245160474646994,1.9169297936999043,8.450252069573926
0.08306235737422157,1.9153664768841552,8.4518460734401
0.08367311000197321,1.9138322639380894,8.453379767654793
0.08428386262972484,1.9123267115155467,8.454853175189989
0.08489461525747646,1.9108493771927224,8.456265666326145
0.08550536788522808,1.909399818920024,8.45761599027161
0.08611612051297972,1.9079775945296868,8.45890230750994
0.08672687314073135,1.9065822612979928,8.460122222805488
0.08733762576848299,1.9052133755608742,8.461272818797992
0.08794837839623461,1.9038704923816099,8.462350690112913
0.08855913102398623,1.9025531652692553,8.4633519779142
0.08916988365173786,1.9012609459463838,8.464272404823848
0.0897806362794895,1.8999933841646854,8.465107310131621
0.09039138890724112,1.8987500275668712,8.465851685217862
0.09100214153499275,1.8975304215933244,8.466500209110107
0.09161289416274439,1.8963341094318604,8.46704728409598
0.09222364679049602,1.8951606320089414,8.467487071311883
0.09283439941824764,1.8940095280206382,8.46781352622923
0.09344515204599926,1.892880334001588,8.468020433958614
0.0940559046737509,1.8917725844301916,8.468101444293326
0.09466665730150253,1.8906858118682393,8.468050106413894
0.09527740992925417,1.88961954713314,8.467859903176539
0.09588816255700579,1.8885733195009158,8.467524284908924
0.09649891518475741,1.8875466569380859,8.467036702638284
0.09710966781250904,1.88653908636057,8.466390640678014
0.09772042044026068,1.8855501339177254,8.46557964850101
0.09833117306801231,1.8845793252996064,8.46459737182914
0.09894192569576393,1.8836261860655696,8.46343758287105
0.09955267832351557,1.8826902419923053,8.462094209642302
0.10016343095126719,1.8817710194394148,8.460561364304219
0.10077418357901882,1.8808680457306335,8.458833370460662
0.10138493620677044,1.8799808495488302,8.456904789354732
0.10199568883452208,1.8791089613429122,8.454770444909794
0.10260644146227371,1.8782519137447968,8.45242544756356
0.10321719409002535,1.8774092419946107,8.449865216845263
0.10382794671777695,1.8765804843723268,8.447085502651658
0.10443869934552859,1.8757651826340596,8.444082405179199
0.10504945197328022,1.874962882451269,8.440852393474232
0.10566020460103186,1.8741731338511676,8.437392322566799
0.10627095722878349,1.873395491656655,8.433699449157317
0.10688170985653511,1.8726295159241502,8.429771445829829
0.10749246248428675,1.8718747723777185,8.425606413767952
0.10810321511203837,1.871130832837959,8.421202893956407
0.10871396773979,1.8703972756441514,8.416559876852755
0.10932472036754162,1.869673686068216,8.411676810519015
0.10993547299529326,1.8689596567190965,8.406553607207785
0.11054622562304489,1.8682547879362312,8.401190648399949
0.11115697825079653,1.867558688170834,8.39558878829797
0.11176773087854816,1.8668709743537724,8.389749355779463
0.11237848350629977,1.8661912722488916,8.383674154823483
0.1129892361340514,1.8655192167906929,8.37736546342361
0.11359998876180304,1.8648544524053567,8.37082603100734
0.11421074138955467,1.8641966333141486,8.364059074384665
0.11482149401730629,1.863545423818334,8.357068272253168
0.11543224664505793,1.8629004985647906,8.349857758290465
0.11604299927280955,1.8622615427915845,8.342432112868902
0.11665375190056118,1.8616282525528387,8.334796353430797
0.1172645045283128,1.861000334922317,8.32695592356617
0.11787525715606444,1.860377508175196,8.31891668083848
0.11848600978381607,1.8597595019475972,8.31068488340666
0.1190967624115677,1.859146057373504,8.302267175495482
0.11970751503931934,1.8585369271987824,8.293670571768148
0.12031826766707095,1.8579318758720873,8.284902440659224
0.12092902029482258,1.8573306796125113,8.275970486727033
0.12153977292257422,1.8567331264539149,8.26688273208807
0.12215052555032585,1.8561390162659326,8.257647496997047
0.12276127817807747,1.8555481607517426,8.248273379639599
0.1233720308058291,1.8549603834227382,8.238769235205048
0.12398278343358073,1.854375519550317,8.229144154308315
0.12459353606133236,1.853793416095071,8.219407440831596
0.125204288689084,1.8532139316137204,8.209568589258451
0.1258150413168356,1.8526369361441988,8.199637261570764
0.12642579394458725,1.8520623110693613,8.189623263783082
0.12703654657233887,1.8514899489598382,8.17953652218681
0.12764729920009052,1.8509197533966188,8.169387059377836
0.12825805182784214,1.8503516387739924,8.159184970140595
0.12886880445559376,1.8497855300835409,8.148940397261702
0.1294795570833454,1.8492213626799041,8.138663507344758
0.13009030971109703,1.848659082029093,8.128364466698418
0.13070106233884865,1.8480986434401705,8.118053417367795
0.13131181496660027,1.847540011781145,8.107740453378316
0.13192256759435192,1.8469831611799676,8.09743559725976
0.13253332022210354,1.8464280747115431,8.087148776916663
0.1331440728498552,1.8458747440717074,8.07688980290944
0.13375482547760678,1.8453231692391272,8.066668346208338
0.13436557810535843,1.8447733581261228,8.05649391648051
0.13497633073311005,1.8442253262194048,8.046375840967988
0.1355870833608617,1.8436790962117564,8.036323244011927
0.13619783598861332,1.8431346976256813,8.026345027276214
0.13680858861636494,1.8425921664300555,8.016449850719884
0.13741934124411656,1.8420515446508252,8.006646114366275
0.13803009387186818,1.8415128799767848,7.996941940912614
0.13864084649961983,1.840976225361478,7.987345159222128
0.13925159912737145,1.8404416386222517,7.977863288735785
0.1398623517551231,1.8399091820374789,7.968503524839398
0.14047310438287472,1.8393789219429775,7.95927272521803
0.14108385701062634,1.8388509283286008,7.950177397225351
0.141694609638378,1.8383252744359968,7.9412236862938395
0.1423053622661296,1.8378020363584902,7.932417365407368
0.14291611489388123,1.8372812926440214,7.9237638256549
0.14352686752163288,1.836763123902063,7.915268067879922
0.1441376201493845,1.8362476124154,7.906934695438074
0.14474837277713615,1.8357348417576291,7.898767908070989
0.14535912540488774,1.8352248964172124,7.890771496901748
0.14596987803263936,1.8347178614288802,7.88294884055374
0.146580630660391,1.8342138220131423,7.8753029023918995
0.14719138328814263,1.8337128632246493,7.867836228881546
0.14780213591589428,1.833215069610081,7.860550949057791
0.1484128885436459,1.8327205248762322,7.853448775094422
0.14902364117139752,1.832229311568902,7.846531003959554
0.14963439379914917,1.8317415107631752,7.839798520140891
0.1502451464269008,1.831257201765623,7.83325179942222
0.15085589905465244,1.8307764618289326,7.826890913689113
0.15146665168240406,1.8302993658794156,7.820715536739721
0.15207740431015568,1.829825986257812,7.814724951073453
0.15268815693790733,1.8293563924737688,7.808918055629422
0.15329890956565892,1.8288906509743232,7.8032933744421635
0.15390966219341054,1.8284288249266791,7.7978490661823425
0.1545204148211622,1.827970974015538,7.792582934546129
0.1551311674489138,1.8275171542551802,7.787492439456614
0.15574192007666546,1.8270674178164774,7.782574709038192
0.15635267270441708,1.8266218128689569,7.777826552322724
0.1569634253321687,1.8261803834380101,7.773244472646469
0.15757417795992035,1.825743169277297,7.768824681693229
0.15818493058767197,1.825310205756352,7.764563114140002
0.15879568321542362,1.8248815237633713,7.760455442858659
0.15940643584317524,1.8244571496231148,7.756497094627545
0.16001718847092686,1.8240371050298252,7.752683266305283
0.1606279410986785,1.8236214069950303,7.749008941418375
0.1612386937264301,1.8232100678100607,7.745468907114206
0.16184944635418172,1.822803095023081,7.7420577714298995
0.16246019898193337,1.8224004914304028,7.738769980828032
0.163070951609685,1.82200225508182,7.735599837948885
0.16368170423743664,1.8216083792996645,7.73254151952994
0.16429245686518826,1.8212188527112716,7.72958909444292
0.16490320949293988,1.820833659294504,7.726736541798926
0.16551396212069153,1.8204527784359539,7.723977769072046
0.16612471474844315,1.82007618500144,7.7213066301935935
0.1667354673761948,1.8197038494183628,7.7187169435681104
0.16734622000394642,1.8193357377694854,7.716202509963815
0.16795697263169804,1.8189718118976759,7.713757130230691
0.16856772525944969,1.8186120295211246,7.711374622800868
0.16917847788720128,1.8182563443585391,7.709048840925369
0.16978923051495293,1.8179047062638063,7.7067736896046375
0.17039998314270455,1.81755706136958,7.704543142169349
0.17101073577045617,1.8172133522392615,7.702351256470698
0.17162148839820782,1.8168735180268085,7.700192190639729
0.17223224102595944,1.816537494643812,7.698060218378163
0.17284299365371106,1.8162052149332617,7.695949743742532
0.1734537462814627,1.8158766088494178,7.693855315387363
0.17406449890921433,1.8155516036432011,7.691771640233644
0.17467525153696598,1.8152301240525082,7.689693596530291
0.1752860041647176,1.814912092496844,7.687616246279234
0.17589675679246922,1.8145974292756915,7.68553484699617
0.17650750942022086,1.8142860527699958,7.683444862780508
0.17711826204797246,1.8139778796461812,7.6813419746709695
0.1777290146757241,1.8136728250620955,7.679222090265075
0.17833976730347573,1.8133708028742863,7.677081352582357
0.17895051993122735,1.8130717258460278,7.674916148154367
0.179561272558979,1.8127755058555088,7.6727231143258265
0.18017202518673062,1.8124820541036102,7.670499145754046
0.18078277781448224,1.8121912813207077,7.668241400095931
0.18139353044223389,1.811903097971938,7.66594730287414
0.1820042830699855,1.8116174144603943,7.663614551516557
0.18261503569773715,1.8113341413277075,7.661241118564488
0.18322578832548878,1.811053189451507,7.658825254049621
0.1838365409532404,1.8107744702392492,7.656365487039554
0.18444729358099204,1.8104978958179334,7.653860626355087
0.18505804620874364,1.8102233792192342,7.6513097604662095
0.18566879883649529,1.809950834559598,7.6487122565729
0.1862795514642469,1.8096801772148756,7.646067758881985
0.18689030409199853,1.809411323989076,7.643376186092533
0.18750105671975018,1.809144193276851,7.640637728103149
0.1881118093475018,1.8088787052193522,7.637852841959581
0.18872256197525342,1.8086147818530969,7.635022247059723
0.18933331460300507,1.8083523472515421,7.63214691963828
0.18994406723075669,1.8080913276590518,7.629228086552695
0.19055481985850833,1.8078316516169965,7.626267218395757
0.19116557248625995,1.807573250081732,7.623266021960864
0.19177632511401158,1.8073160565342365,7.620226432088697
0.19238707774176322,1.8070600070812142,7.617150602924526
0.19299783036951482,1.806805040547491,7.614040898617696
0.19360858299726647,1.806551098559567,7.610899883496418
0.19421933562501809,1.8062981256202055,7.607730311751655
0.1948300882527697,1.8060460691739728,7.604535116665527
0.19544084088052135,1.8057948796636678,7.601317399420853
0.19605159350827298,1.8055445105776067,7.598080417529215
0.19666234613602462,1.8052949184877607,7.594827572915962
0.19727309876377624,1.8050460630787524,7.591562399701196
0.19788385139152787,1.8047979071677798,7.58828855171662
0.1984946040192795,1.8045504167155137,7.58500978979855
0.19910535664703113,1.8043035608280862,7.581729968897333
0.19971610927478275,1.804057311750283,7.578453025044786
0.20032686190253438,1.803811644850085,7.5751829622198805
0.200937614530286,1.8035665385947377,7.5719238391542
0.20154836715803764,1.8033219745185283,7.568679756117852
0.20215911978578927,1.8030779371825,7.5654548417265035
0.20276987241354089,1.8028344141263293,7.562253239809471
0.20338062504129253,1.8025913958126258,7.559079096378854
0.20399137766904415,1.8023488755639334,7.55593654673852
0.2046021302967958,1.8021068494927204,7.552829702771389
0.20521288292454742,1.8018653164246756,7.549762640442171
0.20582363555229904,1.8016242778156335,7.546739387551889
0.2064343881800507,1.8013837376624697,7.543763911779697
0.2070451408078023,1.8011437024083248,7.540840109046027
0.2076558934355539,1.8009041808425195,7.537971792229436
0.20826664606330555,1.8006651839955414,7.535162680268836
0.20887739869105718,1.8004267250294916,7.532416387680829
0.20948815131880882,1.8001888191243842,7.529736414520284
0.21009890394656044,1.7999514833607047,7.527126136810976
0.21070965657431207,1.7997147365986301,7.52458879747071
0.2113204092020637,1.7994785993543314,7.522127497754739
0.21193116182981533,1.7992430936737662,7.5197451892375495
0.21254191445756698,1.79900824300438,7.51744466635362
0.2131526670853186,1.7987740720651353,7.515228559513305
0.21376341971307022,1.7985406067152845,7.513099328810164
0.21437417234082187,1.7983078738222946,7.511059258332347
0.2149849249685735,1.7980759011293392,7.5091104510899855
