frequency,refractiveIndex,absorption
0.0006107526277516292,2.8105839060708573,0.0036639768216385447
0.0012215052555032584,2.8099657485488025,0.014645479095784559
0.0018322578832548875,2.8089375972998587,0.032913307462607656
0.002443010511006517,2.807502599031406,0.05841574551958913
0.003053763138758146,2.8056651190758632,0.09108097837581984
0.003664515766509775,2.803430702231749,0.1308176683128175
0.004275268394261404,2.800806023668448,0.1775156776200123
0.004886021022013034,2.797798830778862,0.23104692636228918
0.005496773649764663,2.794417877002967,0.29126637088714663
0.006107526277516292,2.790672848754071,0.358013087334418
0.006718278905267922,2.786574286656002,0.43111144329968987
0.00732903153301955,2.782133502343329,0.510372340132618
0.00793978416077118,2.7773624920883835,0.5955945081159617
0.008550536788522809,2.7722738485004843,0.6865658369469924
0.009161289416274438,2.7668806714968457,0.7830647244941978
0.009772042044026067,2.7611964796751405,0.8848614276823027
0.010382794671777697,2.7552351231282954,0.991719400514041
0.010993547299529326,2.7490106986376834,1.1033966056099063
0.011604299927280955,2.742537468065308,1.2196467871784311
0.012215052555032585,2.735829780643925,1.3402206949615048
0.012825805182784214,2.7289019997395445,1.4648672503776368
0.013436557810535843,2.7217684345377395,1.5933346477623256
0.014047310438287471,2.714443276986202,1.7253713852360755
0.0146580630660391,2.7069405442138796,1.8607272212814454
0.015268815693790731,2.699274026543707,1.9991540545542819
0.01587956832154236,2.6914572411227877,2.140406725768626
0.01649032094929399,2.683503391111677,2.2842437416675976
0.017101073577045618,2.6754253303038302,2.4304279221153657
0.01771182620479725,2.667235532987134,2.5787269722174186
0.018322578832548876,2.6589460688113826,2.7289139820986072
0.018933331460300507,2.6505685823881517,2.8807678575491047
0.019544084088052135,2.6421142773219954,3.034073685195415
0.020154836715803762,2.6335939043529906,3.188623036178225
0.020765589343555393,2.62501775328,3.344214212534149
0.02137634197130702,2.616395648329841,3.5006524405963853
0.021987094599058652,2.607736946639584,3.6577500157643645
0.02259784722681028,2.5990505395257784,3.815326402956281
0.02320859985456191,2.590344856225105,3.973208296963805
0.023819352482313542,2.581627869804612,4.131229646787078
0.02443010511006517,2.572907104955812,4.289231647849599
0.025040857737816797,2.5641896474043757,4.447062705787495
0.025651610365568428,2.5554821546860595,4.604578375282368
0.026262362993320056,2.5467908680585043,4.761641277171147
0.026873115621071687,2.538121625338051,4.918120996822775
0.027483868248823314,2.529479874469663,5.073893966528495
0.028094620876574942,2.5208706876567466,5.22884333441162
0.028705373504326573,2.512298775895484,5.38285882212861
0.0293161261320782,2.5037685037753445,5.535836573408089
0.029926878759829835,2.495283904423376,5.6876789952598505
0.030537631387581463,2.4868486944849506,5.8382945934840045
0.03114838401533309,2.4784662890474456,5.98759780392093
0.03175913664308472,2.4701398164261414,6.13550882070751
0.03236988927083635,2.4618721327432604,6.28195342264268
0.03298064189858798,2.453665836241733,6.4268627986176
0.03359139452633961,2.4455232812848258,6.570173372930341
0.034202147154091235,2.437446592001397,6.711826631183164
0.03481289978184286,2.42943767554421,6.851768947350087
0.0354236524095945,2.421498234935628,6.989951412504958
0.036034405037346125,2.4136297814809833,7.126329665612185
0.03664515766509775,2.4058336467352732,7.260863726705312
0.03725591029284938,2.398110994013412,7.393517832710919
0.037866662920601014,2.3904628294383983,7.524260276116326
0.038477415548352635,2.382890012525085,7.653063246627854
0.03908816817610427,2.375393266300344,7.77990267592326
0.039698920803855904,2.367973186962867,7.904758085563506
0.040309673431607525,2.3606302530880026,8.02761243809863
0.04092042605935916,2.353364834384848,8.148451991375323
0.04153117868711079,2.3461772000141763,8.267266156032889
0.04214193131486242,2.3390675264771015,8.384047356156616
0.04275268394261404,2.332035905085259,8.498790893044392
0.04336343657036568,2.3250823490240395,8.611494812031752
0.043974189198117304,2.318206800021,8.722159772313326
0.04458494182586893,2.3114091346319574,8.830788919693479
0.04519569445362056,2.3046891701575776,8.937387762196337
0.045806447081372194,2.2980466702034037,9.041964048464324
0.04641719970912382,2.2914813498963778,9.14452764887471
0.04702795233687545,2.2849928807708224,9.24509043930585
0.047638704964627084,2.2785808953368765,9.343666187487361
0.048249457592378704,2.272244991344141,9.440270441872755
0.04886021022013034,2.265984735753164,9.534920422976464
0.049470962847881966,2.259799668427179,9.627634917123824
0.050081715475633594,2.253689305556267,9.718434172566385
0.05069246810338522,2.2476531428258077,9.807339797921237
0.051303220731136856,2.2416906583408753,9.894374662898741
0.05191397335888848,2.2358013153178797,9.979562801288628
0.05252472598664011,2.2299845645545053,10.062929316180757
0.053135478614391746,2.2242398466886506,10.144500287400838
0.05374623124214337,2.218566594256821,10.224302681149153
0.054356983869895,2.2129642335620576,10.30236426183329
0.05496773649764663,2.207432186361289,10.378713506092266
0.05557848912539826,2.2019698713815576,10.453379519012756
0.056189241753149884,2.1965767056744334,10.526391952543719
0.05679999438090152,2.191252105817505,10.597780926117814
0.057410747008653146,2.1859954889716837,10.667576949493062
0.05802149963640477,2.1808062738026686,10.735810847829605
0.0586322522641564,2.1756838812747663,10.802513689020484
0.059243004891908035,2.1706277353248926,10.86771671329545
0.05985375751965967,2.165637263424441,10.931451265121243
0.06046451014741129,2.160711897036355,10.993748727419769
0.061075262775162925,2.1558510719745807,11.054640458129418
0.06168601540291455,2.1510542286727725,11.114157729132224
0.06229676803066618,2.1463208123689927,11.172331667572506
0.0629075206584178,2.1416502732127847,11.229193199589837
0.06351827328616944,2.137042066300923,11.284772996488702
0.06412902591392107,2.1324956516478237,11.339101423367815
0.0647397785416727,2.1280104940964373,11.392208490227826
0.06535053116942433,2.123586063175215,11.444123805576222
0.06596128379717596,2.119221832906575,11.494876532545527
0.0665720364249276,2.11491728157201,11.544495347537614
0.06718278905267921,2.110671891438882,11.593008401405456
0.06779354168043085,2.1064851484536637,11.64044328317976
0.06840429430818247,2.1023565419062447,11.686826986344789
0.06901504693593409,2.098285564069706,11.732185877664888
0.06962579956368573,2.094271709819765,11.776545668558665
0.07023655219143736,2.090314476237936,11.819931389014528
0.070847304819189,2.0864133622022285,11.862367364038274
0.07145805744694061,2.082567867969014,11.903877192616713
0.07206881007469225,2.0787774947495787,11.944483729181755
0.07267956270244387,2.075041744284565,11.984209067549642
0.0732903153301955,2.07136011841947,12.023074527311525
0.07390106795794714,2.067732118684061,12.06110064264264
0.07451182058569876,2.064157245878481,12.098307153496874
0.0751225732134504,2.0606349996685815,12.134712999146483
0.07573332584120203,2.0571648781928853,12.170336314024992
0.07634407846895366,2.0537463776833698,12.205194425825292
0.07695483109670527,2.050378992102131,12.23930385580292
0.0775655837244569,2.047062212795796,12.272680321229089
0.07817633635220854,2.0437955281693903,12.305338739934978
0.07878708897996017,2.0405784233811985,12.337293236885426
0.07939784160771181,2.037410380060034,12.368557152717042
0.08000859423546343,2.0342908760461014,12.399143054170379
0.08061934686321505,2.031219385156584,12.42906274634643
0.08123009949096668,2.028195376976843,12.458327286710846
0.08184085211871832,2.02521831667803,12.486947000769385
0.08245160474646994,2.022287664861763,12.51493149933428
0.08306235737422157,2.019402877432361,12.542289697299429
0.08367311000197321,2.0165634054970107,12.56902983383939
0.08428386262972484,2.0137686952941216,12.59515949394656
0.08489461525747646,2.011018188149977,12.620685631218437
0.08550536788522808,2.0083113204637013,12.645614591804994
0.08611612051297972,2.00564752372041,12.669952139426545
0.08672687314073135,2.00302622453234,12.69370348136966
0.08733762576848299,2.0004468447076373,12.716873295369675
0.08794837839623461,1.9979088013463542,12.73946575728647
0.08855913102398623,1.9954115069631733,12.761484569480528
0.08916988365173786,1.9929543696362109,12.782932989796718
0.0897806362794895,1.990536793181256,12.803813861062249
0.09039138890724112,1.9881581773506294,12.824129641006998
0.09100214153499275,1.985817918055864,12.843882432513645
0.09161289416274439,1.9835154076132544,12.863074014107724
0.09222364679049602,1.9812500350113427,12.881705870596523
0.09283439941824764,1.9790211861992806,12.899779223768714
0.09344515204599926,1.9768282443950034,12.917295063067982
0.0940559046737509,1.9746705904120752,12.934254176154466
0.09466665730150253,1.9725476030040436,12.95065717927039
0.09527740992925417,1.9704586592250775,12.966504547328777
0.09588816255700579,1.9684031348056648,12.981796643645106
0.09649891518475741,1.9663804045420947,12.996533749235477
0.09710966781250904,1.964389842698411,13.010716091605971
0.09772042044026068,1.9624308234195658,13.024343872962053
0.09833117306801231,1.9605027211544042,13.037417297768028
0.09894192569576393,1.9586049110871777,13.049936599591149
0.09955267832351557,1.9567367695762226,13.061902067166566
0.10016343095126719,1.9548976745984827,13.073314069623617
0.10077418357901882,1.95308700619851,13.08417308081606
0.10138493620677044,1.9513041469406411,13.094479702703893
0.10199568883452208,1.9495484823629954,13.104234687735465
0.10260644146227371,1.9478194014320116,13.113438960184595
0.10321719409002535,1.9461162969962118,13.122093636399494
0.10382794671777695,1.9444385662379364,13.130200043923814
0.10443869934552859,1.9427856111217794,13.137759739455241
0.10504945197328022,1.9411568388385405,13.144774525608764
0.10566020460103186,1.9395516622434505,13.151246466457668
0.10627095722878349,1.9379695002875625,13.15717790182751
0.10688170985653511,1.9364097784411467,13.162571460322352
0.10749246248428675,1.9348719291080134,13.16743007106734
0.10810321511203837,1.9333553920297282,13.171756974154224
0.10871396773979,1.9318596146786862,13.175555729781383
0.10932472036754162,1.9303840526391083,13.178830226081864
0.10993547299529326,1.9289281699750345,13.181584685640077
0.11054622562304489,1.9274914395844271,13.183823670695986
0.11115697825079653,1.926073343538604,13.185552087046666
0.11176773087854816,1.9246733734061772,13.186775186650404
0.11237848350629977,1.9232910305608337,13.18749856894961
0.1129892361340514,1.921925826472247,13.187728180926507
0.11359998876180304,1.9205772829795398,13.18747031591252
0.11421074138955467,1.9192449325467216,13.186731611173778
0.11482149401730629,1.9179283184996079,13.18551904429892
0.11543224664505793,1.9166269952437724,13.183839928417912
0.11604299927280955,1.9153405284631468,13.18170190628501
0.11665375190056118,1.9140684952989278,13.179112943259403
0.1172645045283128,1.912810484508524,13.176081319221606
0.11787525715606444,1.9115660966043202,13.172615619466644
0.11848600978381607,1.9103349439720962,13.168724724614941
0.1190967624115677,1.909116650968992,13.164417799586705
0.11970751503931934,1.9079108540009808,13.15970428168711
0.12031826766707095,1.9067172015798344,13.15459386784938
0.12092902029482258,1.9055353543596656,13.149096501089122
0.12153977292257422,1.9043649851531415,13.143222356219443
0.12215052555032585,1.9032057789275452,13.136981824882417
0.12276127817807747,1.9020574327808972,13.13038549995154
0.1233720308058291,1.9009196558984167,13.123444159360819
0.12398278343358073,1.8997921694896225,13.11616874941813
0.12459353606133236,1.898674706706456,13.108570367660038
0.125204288689084,1.8975670125428243,13.100660245307399
0.1258150413168356,1.8964688437160286,13.092449729379739
0.12642579394458725,1.8953799685305637,13.083950264527022
0.12703654657233887,1.8943001667248398,13.075173374639272
0.12764729920009052,1.8932292293013906,13.06613064429137
0.12825805182784214,1.8921669583411835,13.056833700082029
0.12886880445559376,1.891113166802679,13.047294191925248
0.1294795570833454,1.8900676783063175,13.037523774350937
0.13009030971109703,1.8890303269051312,13.027534087871349
0.13070106233884865,1.8880009568422298,13.017336740469577
0.13131181496660027,1.886979422295899,13.006943289262182
0.13192256759435192,1.8859655871131056,12.99636522239117
0.13253332022210354,1.8849593245321967,12.98561394119546
0.1331440728498552,1.8839605168956157,12.974700742711615
0.13375482547760678,1.8829690553534564,12.963636802552497
0.13436557810535843,1.8819848395587009,12.952433158208844
0.13497633073311005,1.8810077773549807,12.941100692819333
0.1355870833608617,1.8800377844577265,12.929650119449613
0.13619783598861332,1.879074784129553,12.918091965921287
0.13680858861636494,1.878118706850745,12.906436560227242
0.13741934124411656,1.8771694899856923,12.894694016569126
0.13803009387186818,1.876227077446137,12.88287422204908
0.13864084649961983,1.8752914193520662,12.870986824046186
0.13925159912737145,1.8743624716910914,12.859041218303865
0.1398623517551231,1.873440195977142,12.84704653775478
0.14047310438287472,1.8725245589092794,12.83501164210333
0.14108385701062634,1.87161553203142,12.822945108186808
0.141694609638378,1.8707130913937624,12.81085522113037
0.1423053622661296,1.8698172172166565,12.798749966310684
0.14291611489388123,1.8689278935576568,12.786637022139193
0.14352686752163288,1.8680451079824743,12.774523753672533
0.1441376201493845,1.8671688512405065,12.762417207057128
0.14474837277713615,1.8662991169456087,12.750324104810062
0.14535912540488774,1.8654359012627375,12.738250841936823
0.14596987803263936,1.8645792026010684,12.726203482884195
0.146580630660391,1.86372902131415,12.714187759321955
0.14719138328814263,1.8628853594076493,12.702209068748887
0.14780213591589428,1.8620482202551787,12.690272473910726
0.1484128885436459,1.86121760832269,12.678382703019812
0.14902364117139752,1.8603935289018618,12.666544150761727
0.14963439379914917,1.8595759878529,12.654760880072404
0.1502451464269008,1.8587649913571045,12.643036624667802
0.15085589905465244,1.8579605456795443,12.63137479230538
0.15146665168240406,1.8571626569421458,12.619778468755348
0.15207740431015568,1.8563713309074372,12.60825042245768
0.15268815693790733,1.855586572773202,12.59679310983978
0.15329890956565892,1.854808386978211,12.585408681266697
0.15390966219341054,1.8540367770192043,12.574098987596518
0.1545204148211622,1.853271745279242,12.56286558731059
0.1551311674489138,1.8525132928675134,12.55170975418736
0.15574192007666546,1.8517614194706518,12.540632485489121
0.15635267270441708,1.8510161232155962,12.52963451062675
0.1569634253321687,1.85027740054397,12.518716300271125
0.15757417795992035,1.8495452460979482,12.507878075874594
0.15818493058767197,1.8488196526175442,12.49711981956964
0.15879568321542362,1.8481006108492053,12.486441284407627
0.15940643584317524,1.8473881094656033,12.47584200490341
0.16001718847092686,1.8466821349964546,12.465321307849004
0.1606279410986785,1.8459826717701948,12.454878323360825
0.1612386937264301,1.845289701866303,12.444511996124712
0.16184944635418172,1.8446032050780414,12.434221096802249
0.16246019898193337,1.84392315888537,12.424004233564114
0.163070951609685,1.8432495384377545,12.413859863713597
0.16368170423743664,1.842582316546584,12.403786305367506
0.16429245686518826,1.841921463686886,12.393781749158364
0.16490320949293988,1.8412669480080148,12.38384426992543
0.16551396212069153,1.8406187353529735,12.373971838361657
0.16612471474844315,1.8399767892860093,12.3641623325839
0.1667354673761948,1.839341071128123,12.354413549595707
0.16734622000394642,1.8387115400001048,12.34472321661208
0.16795697263169804,1.8380881528727153,12.33508900221728
0.16856772525944969,1.83747086462361,12.325508527327184
0.16917847788720128,1.836859628100604,12.315979375929617
0.16978923051495293,1.836254394190865,12.306499105575831
0.17039998314270455,1.8356551118956221,12.297065257600163
0.17101073577045617,1.8350617284099682,12.287675367042734
0.17162148839820782,1.8344741892073362,12.278326972254618
0.17223224102595944,1.8338924381282322,12.269017624164402
0.17284299365371106,1.8333164174727898,12.259744895186335
0.1734537462814627,1.8327460680967445,12.250506387753507
0.17406449890921433,1.8321813295103886,12.241299742458777
0.17467525153696598,1.8316221399801142,12.232122645788884
0.1752860041647176,1.8310684366321095,12.222972837438114
0.17589675679246922,1.8305201555578274,12.213848117190924
0.17650750942022086,1.8299772319208059,12.204746351360855
0.17711826204797246,1.8294396000644662,12.195665478779384
0.1777290146757241,1.8289071936204944,12.186603516325556
0.17833976730347573,1.8283799456174352,12.177558563991223
0.17895051993122735,1.827857788589134,12.16852880947826
0.179561272558979,1.8273406546826725,12.15951253232317
0.18017202518673062,1.8268284757654512,12.15050810754944
0.18078277781448224,1.8263211835310953,12.141514008846865
0.18139353044223389,1.8258187096038536,12.132528811279357
0.1820042830699855,1.8253209856411932,12.123551193524124
0.18261503569773715,1.8248279434342924,12.114579939646681
0.18322578832548878,1.8243395150061594,12.105613940417138
0.1838365409532404,1.823855632707098,12.096652194174968
0.18444729358099204,1.8233762293072893,12.087693807249387
0.18505804620874364,1.8229012380862388,12.078737993946207
0.18566879883649529,1.8224305929188822,12.069784076110745
0.1862795514642469,1.821964228358135,12.060831482278493
0.18689030409199853,1.8215020797137051,12.051879746426838
0.18750105671975018,1.821044083127,12.04292850634115
0.1881118093475018,1.8205901756419616,12.033977501609996
0.18872256197525342,1.8201402952717038,12.02502657126617
0.18933331460300507,1.8196943810608213,12.01607565108827
0.18994406723075669,1.8192523731432624,12.007124770581962
0.19055481985850833,1.8188142127956888,11.998174049658058
0.19116557248625995,1.8183798424862296,11.989223695026322
0.19177632511401158,1.817949205918591,11.98027399632494
0.19238707774176322,1.8175222480714706,11.971325322004528
0.19299783036951482,1.817098915233251,11.96237811498861
0.19360858299726647,1.8166791550319707,11.95343288812936
0.19421933562501809,1.8162629164605717,11.944490219482349
0.1948300882527697,1.8158501498974446,11.93555074741909
0.19544084088052135,1.8154408071223167,11.926615165601188
0.19605159350827298,1.8150348413275224,11.917684217836548
0.19666234613602462,1.8146322071247252,11.908758692839507
0.19727309876377624,1.8142328605471731,11.899839418918184
0.19788385139152787,1.813836759047574,11.890927258608473
0.1984946040192795,1.8134438614916948,11.88202310327817
0.19910535664703113,1.8130541281478068,11.87312786772212
0.19971610927478275,1.8126675206720955,11.864242484768276
0.20032686190253438,1.812284002090183,11.855367899917407
0.200937614530286,1.811903536774906,11.84650506603521
0.20154836715803764,1.8115260904205066,11.83765493811706
0.20215911978578927,1.8111516300134134,11.828818468145283
0.20276987241354089,1.8107801237997774,11.819996600056616
0.20338062504129253,1.8104115412499475,11.811190264838393
0.20399137766904415,1.8100458530200911,11.802400375771123
0.2046021302967958,1.809683030911131,11.793627823833159
0.20521288292454742,1.8093230478252278,11.784873473284259
0.20582363555229904,1.8089658777199913,11.77613815744101
0.2064343881800507,1.8086114955606474,11.76742267466093
0.2070451408078023,1.808259877270368,11.758727784545444
0.2076558934355539,1.8079109996789786,11.750054204375518
0.20826664606330555,1.807564840470267,11.741402605790183
0.20887739869105718,1.8072213781281055,11.732773611718619
0.20948815131880882,1.806880591881609,11.72416779357391
0.21009890394656044,1.8065424616495487,11.71558566871692
0.21070965657431207,1.8062069679842303,11.707027698197017
0.2113204092020637,1.8058740920150624,11.69849428477494
0.21193116182981533,1.8055438153920187,11.68998577123278
0.21254191445756698,1.8052161202292025,11.681502438974249
