frequency,refractiveIndex,absorption
0.0006107526277516292,2.819371978281789,0.006523129767633571
0.0012215052555032584,2.8173416714860107,0.026033017844610703
0.0018322578832548875,2.8139804284183896,0.05835277131291933
0.002443010511006517,2.809321459329329,0.10319284472037026
0.003053763138758146,2.8034099170563707,0.16015863761998725
0.003664515766509775,2.7963016508430782,0.22876053018358963
0.004275268394261404,2.7880617295554737,0.30842582615714986
0.004886021022013034,2.778762811349612,0.3985120094113312
0.005496773649764663,2.7684834381667547,0.49832070599092326
0.006107526277516292,2.757306328900661,0.6071117734034724
0.006718278905267922,2.7453167359241193,0.7241170041344198
0.00732903153301955,2.7326009174231802,0.8485530198472031
0.00793978416077118,2.71924476426107,0.9796330347294608
0.008550536788522809,2.7053326063087146,1.1165772703550945
0.009161289416274438,2.690946210459167,1.258621901735294
0.009772042044026067,2.6761639716488315,1.4050264990180776
0.010382794671777697,2.6610602895394297,1.5550799982479633
0.010993547299529326,2.6457051171673482,1.7081052866524484
0.011604299927280955,2.630163663707263,1.8634625237407867
0.012215052555032585,2.614496231244098,2.02055134089737
0.012825805182784214,2.5987581647451687,2.17881207156553
0.013436557810535843,2.5829998948997246,2.3377261641908764
0.014047310438287471,2.567267054794721,2.49681592336926
0.0146580630660391,2.5516006532192987,2.655643713379727
0.015268815693790731,2.5360372894879655,2.8138107443526206
0.01587956832154236,2.520609396854755,2.9709555461990425
0.01649032094929399,2.505345503721359,3.1267522201989326
0.017101073577045618,2.490270503831689,3.2809085435676573
0.01771182620479725,2.475405928439689,3.4331639888759686
0.018322578832548876,2.4607702150112165,3.5832877081526777
0.018933331460300507,2.4463789683690704,3.7310765209628
0.019544084088052135,2.4322452113209803,3.8763529367223297
0.020154836715803762,2.4183796227401535,4.018963233907677
0.020765589343555393,2.404790761818423,4.158775612523393
0.02137634197130702,2.391485277805641,4.295678431060796
0.021987094599058652,2.3784681050093885,4.42957853506492
0.02259784722681028,2.3657426431773274,4.56039968117758
0.02320859985456191,2.3533109236408953,4.688081058005087
0.023819352482313542,2.341173761780547,4.8125759032433155
0.02443010511006517,2.329330896494769,4.9338502150716925
0.025040857737816797,2.317781117430147,5.0518815548055676
0.025651610365568428,2.3065223807686888,5.166657937090454
0.026262362993320056,2.2955519143800895,5.278176803467538
0.026873115621071687,2.2848663131378566,5.386444074875844
0.027483868248823314,2.2744616251748075,5.4914732785422276
0.028094620876574942,2.2643334298200513,5.593284744703124
0.028705373504326573,2.254476907919669,5.691904868676671
0.0293161261320782,2.2448869051995346,5.787365433933128
0.029926878759829835,2.2355579892833055,5.879702991979167
0.030537631387581463,2.226484500932933,5.968958295063326
0.03114838401533309,2.2176606000343098,6.0551757779140685
0.03175913664308472,2.209080306807596,6.138403084931653
0.03236988927083635,2.200737538680832,6.2186906394635795
0.03298064189858798,2.1926261432271272,6.296091251998417
0.03359139452633961,2.1847399275299315,6.370659764309906
0.034202147154091235,2.177072684307896,6.442452726771256
0.03481289978184286,2.169618215100506,6.511528106239173
0.0354236524095945,2.1623703507879215,6.577945022075296
0.036034405037346125,2.1553229696931773,6.641763508031884
0.03664515766509775,2.1484700134919144,6.703044297877625
0.03725591029284938,2.141805501134043,6.761848632779865
0.037866662920601014,2.135323540962819,6.81823808859083
0.038477415548352635,2.129018341199849,6.872274421309086
0.03908816817610427,2.122884218949108,6.924019429104278
0.039698920803855904,2.1169156078591467,6.973534829402072
0.040309673431607525,2.1111070645701355,7.020882149630493
0.04092042605935916,2.105453274061005,7.066122630326276
0.04153117868711079,2.099949054001697,7.109317139392666
0.04214193131486242,2.0945893582062296,7.1505260963875115
0.04275268394261404,2.089369279273868,7.189809405804536
0.04336343657036568,2.0842840504980438,7.2272263983890035
0.043974189198117304,2.079329047115721,7.262835779604177
0.04458494182586893,2.0744997869635986,7.296695584436791
0.04519569445362056,2.0697919306017925,7.328863137796611
0.045806447081372194,2.065201280960386,7.359395019829813
0.04641719970912382,2.060723782559466,7.388347035526207
0.04702795233687545,2.0563555203488857,7.415774188058497
0.047638704964627084,2.0520927182100186,7.441730655345227
0.048249457592378704,2.0479317371580663,7.466269769380716
0.04886021022013034,2.043869073280191,7.489443997923278
0.049470962847881966,2.039901355441656,7.5113049281784905
0.050081715475633594,2.036025342789321,7.531903252156027
0.05069246810338522,2.032237922079329,7.551288753418833
0.051303220731136856,2.0285361048534067,7.569510294979616
0.05191397335888848,2.0249170244860513,7.586615808134041
0.05252472598664011,2.0213779331229453,7.60265228205208
0.053135478614391746,2.01791619852906,7.6176657539773185
0.05374623124214337,2.0145293008632863,7.6317012999115885
0.054356983869895,2.0112148293949277,7.644803025686539
0.05496773649764663,2.007970479175966,7.657014058345964
0.05557848912539826,2.0047940476817563,7.668376537783361
0.056189241753149884,2.0016834314316765,7.678931608597288
0.05679999438090152,1.998636622600135,7.6887194121431115
0.057410747008653146,1.9956517056274383,7.697779078775376
0.05802149963640477,1.9927268538390994,7.706148720286574
0.0586322522641564,1.9898603260813696,7.713865422560454
0.059243004891908035,1.9870504633800525,7.720965238467392
0.05985375751965967,1.9842956856289768,7.727483181037484
0.06046451014741129,1.981594488313909,7.733453216954596
0.061075262775162925,1.9789454392771129,7.738908260420083
0.06168601540291455,1.976347175527269,7.74388016743918
0.06229676803066618,1.973798400099002,7.748399730587504
0.0629075206584178,1.971297878965825,7.752496674316991
0.06351827328616944,1.9688444380099606,7.756199650862256
0.06412902591392107,1.9664369600520928,7.759536236809574
0.0647397785416727,1.9640743819438278,7.76253293039054
0.06535053116942433,1.9617556917253145,7.765215149561587
0.06596128379717596,1.9594799258502134,7.7676072309293875
0.0665720364249276,1.957246166479953,7.769732429580638
0.06718278905267921,1.9550535388489652,7.771612919871226
0.06779354168043085,1.9529012087024045,7.77326979722864
0.06840429430818247,1.9507883798076209,7.774723081016216
0.06901504693593409,1.948714291540501,7.775991718505637
0.06962579956368573,1.946678216547598,7.777093589999592
0.07023655219143736,1.9446794584848226,7.778045515142182
0.070847304819189,1.9427173498333012,7.778863260449927
0.07145805744694061,1.9407912497928728,7.779561548092597
0.07206881007469225,1.9389005422535655,7.780154065946934
0.07267956270244387,1.9370446338452387,7.780653478942073
0.0732903153301955,1.9352229520654942,7.781071441710816
0.07390106795794714,1.9334349434857991,7.781418612554542
0.07451182058569876,1.9316800720356924,7.781704668726166
0.0751225732134504,1.9299578173648002,7.781938323028467
0.07573332584120203,1.928267673282324,7.782127341721991
0.07634407846895366,1.9266091462735175,7.782278563729801
0.07695483109670527,1.9249817540926244,7.782397921122815
0.0775655837244569,1.9233850244316144,7.782490460864082
0.07817633635220854,1.921818493663993,7.782560367784552
0.07878708897996017,1.920281705662856,7.782610988760524
0.07939784160771181,1.918774210692287,7.782644858055484
0.08000859423546343,1.917295564371117,7.782663723787397
0.08061934686321505,1.9158453267079771,7.782668575476295
0.08123009949096668,1.9144230612065072,7.782659672624216
0.08184085211871832,1.9130283340395096,7.782636574274716
0.08245160474646994,1.911660713290764,7.782598169496513
0.08306235737422157,1.9103197682631565,7.782542708731617
0.08367311000197321,1.9090050688517,7.782467835945075
0.08428386262972484,1.9077161849799802,7.782370621511407
0.08489461525747646,1.9064526860984707,7.782247595768588
0.08550536788522808,1.9052141407431407,7.782094783169116
0.08611612051297972,1.9040001161526854,7.781907736954688
0.08672687314073135,1.90281017794269,7.781681574279498
0.08733762576848299,1.901643889834968,7.781411011704926
0.08794837839623461,1.9005008134402677,7.781090400986887
0.08855913102398623,1.8993805080925223,7.780713765076367
0.08916988365173786,1.8982825307327333,7.780274834251817
0.0897806362794895,1.8972064358405885,7.77976708230222
0.09039138890724112,1.896151775411844,7.779183762678252
0.09100214153499275,1.8951180989794842,7.778517944529235
0.09161289416274439,1.8941049536766477,7.777762548543892
0.09222364679049602,1.8931118843392651,7.776910382512145
0.09283439941824764,1.8921384336463636,7.77595417652695
0.09344515204599926,1.8911841422959323,7.7748866177453175
0.0940559046737509,1.89024854921427,7.773700384628045
0.09466665730150253,1.889331191796695,7.772388180580843
0.09527740992925417,1.8884316061775033,7.770942766919067
0.09588816255700579,1.8875493275270512,7.76935699508098
0.09649891518475741,1.8866838903738399,7.7676238380166795
0.09710966781250904,1.8858348289494788,7.765736420681279
0.09772042044026068,1.8850016775544227,7.763688049564041
0.09833117306801231,1.8841839709423602,7.761472241187309
0.09894192569576393,1.8833812447211808,7.7590827495126025
0.09955267832351557,1.8825930357684348,7.756513592193085
0.10016343095126719,1.8818188826592406,7.7537590756162045
0.10077418357901882,1.8810583261046017,7.750813818682766
0.10138493620677044,1.8803109093981445,7.74767277527251
0.10199568883452208,1.8795761788692986,7.74433125535035
0.10260644146227371,1.8788536843409918,7.740784944670252
0.10321719409002535,1.8781429795899627,7.737029923038781
0.10382794671777695,1.8774436228078397,7.733062681104437
0.10443869934552859,1.8767551770611788,7.728880135641478
0.10504945197328022,1.8760772107487043,7.724479643303889
0.10566020460103186,1.8754092980540396,7.719859012826306
0.10627095722878349,1.8747510193922898,7.715016515656445
0.10688170985653511,1.8741019618488706,7.709950895005457
0.10749246248428675,1.8734617196090553,7.704661373307904
0.10810321511203837,1.8728298943767794,7.699147658088349
0.10871396773979,1.8722060957812865,7.693409946235186
0.10932472036754162,1.8715899417702915,7.687448926686311
0.10993547299529326,1.8709810589883957,7.681265781537753
0.11054622562304489,1.8703790831395615,7.674862185588068
0.11115697825079653,1.8697836593325308,7.668240304338046
0.11176773087854816,1.869194442408147,7.661402790467894
0.11237848350629977,1.8686110972476229,7.654352778819101
0.1129892361340514,1.8680332990608577,7.647093879912268
0.11359998876180304,1.8674607336540192,7.639630172035407
0.11421074138955467,1.8668930976756464,7.631966191942149
0.11482149401730629,1.8663300988406477,7.6241069242019694
0.11543224664505793,1.8657714561316237,7.616057789248762
0.11604299927280955,1.8652168999770402,7.6078246301771335
0.11665375190056118,1.86466617240585,7.599413698339221
0.1172645045283128,1.864119027178251,7.590831637797392
0.11787525715606444,1.863575229892346,7.582085468691696
0.11848600978381607,1.8630345580665357,7.573182569582783
0.1190967624115677,1.8624968011975864,7.564130658834059
0.11970751503931934,1.861961760794355,7.554937775098493
0.12031826766707095,1.8614292503872554,7.545612256977938
0.12092902029482258,1.8608990955136173,7.536162721923918
0.12153977292257422,1.8603711336791517,7.526598044451278
0.12215052555032585,1.8598452142958244,7.516927333735852
0.12276127817807747,1.8593211985964906,7.507159910670249
0.1233720308058291,1.8587989595267265,7.497305284450867
0.12398278343358073,1.8582783816143318,7.487373128770949
0.12459353606133236,1.8577593608170666,7.47737325769368
0.125204288689084,1.8572418043492216,7.467315601281255
0.1258150413168356,1.8567256304876856,7.457210181053226
0.12642579394458725,1.8562107683582194,7.447067085349002
0.12703654657233887,1.8556971577026977,7.436896444667788
0.12764729920009052,1.8551847486281265,7.426708407058748
0.12825805182784214,1.8546735013382758,7.416513113633024
0.12886880445559376,1.8541633858488134,7.406320674267457
0.1294795570833454,1.8536543816868642,7.396141143569863
0.13009030971109703,1.8531464775759343,7.3859844971719415
0.13070106233884865,1.8526396711071778,7.375860608416105
0.13131181496660027,1.8521339683980123,7.365779225498805
0.13192256759435192,1.8516293837390945,7.355749949131998
0.13253332022210354,1.8511259392306978,7.345782210781673
0.1331440728498552,1.8506236644095353,7.3358852515387944
0.13375482547760678,1.850122595867093,7.326068101677676
0.13436557810535843,1.8496227768605364,7.316339560952092
0.13497633073311005,1.8491242569172504,7.306708179676623
0.1355870833608617,1.8486270914340959,7.297182240640056
0.13619783598861332,1.8481313412724278,7.287769741891038
0.13680858861636494,1.8476370723499453,7.278478380436453
0.13741934124411656,1.8471443552304176,7.269315536887663
0.13803009387186818,1.846653264712314,7.2602882610873225
0.13864084649961983,1.8461638794173667,7.25140325874637
0.13925159912737145,1.8456762813800622,7.242666879116608
0.1398623517551231,1.8451905556390407,7.234085103722324
0.14047310438287472,1.8447067898313674,7.225663536169726
0.14108385701062634,1.844225073790601,7.217407393050489
0.141694609638378,1.8437454991495719,7.209321495951997
0.1423053622661296,1.843268158948743,7.201410264583733
0.14291611489388123,1.8427931472509964,7.19367771102597
0.14352686752163288,1.842320558763666,7.186127435103456
0.1441376201493845,1.8418504884685876,7.178762620883976
0.14474837277713615,1.8413830312609096,7.171586034298137
0.14535912540488774,1.840918281597381,7.164600021874418
0.14596987803263936,1.8404563331547699,7.157806510578978
0.146580630660391,1.8399972784990524,7.151207008748777
0.14719138328814263,1.8395412087659608,7.144802608102084
0.14780213591589428,1.839088213353437,7.138593986808915
0.1484128885436459,1.838638379626502,7.132581413600024
0.14902364117139752,1.838191792635011,7.126764752892032
0.14963439379914917,1.8377485348447156,7.1211434709024255
0.1502451464269008,1.8373086858820211,7.115716642726649
0.15085589905465244,1.8368723222927799,7.110482960347306
0.15146665168240406,1.836439517315421,7.10544074154267
0.15207740431015568,1.8360103406686754,7.100587939660855
0.15268815693790733,1.835584858354117,7.095922154222954
0.15329890956565892,1.8351631324736892,7.09144064231733
0.15390966219341054,1.8347452210623658,7.087140330746126
0.1545204148211622,1.8343311779360283,7.083017828882101
0.1551311674489138,1.8339210525546297,7.079069442194416
0.15574192007666546,1.8335148899006546,7.075291186399159
0.15635267270441708,1.8331127303728603,7.0716788021901005
0.1569634253321687,1.832714609695247,7.068227770504641
0.15757417795992035,1.8323205588411546,7.064933328277385
0.15818493058767197,1.8319306039723735,7.061790484635516
0.15879568321542362,1.8315447663930937,7.058794037487201
0.15940643584317524,1.8311630625185134,7.055938590455573
0.16001718847092686,1.8307855038578702,7.053218570109432
0.1606279410986785,1.8304120970116444,7.05062824344183
0.1612386937264301,1.8300428436826532,7.048161735548832
0.16184944635418172,1.829677740700711,7.045813047457963
0.16246019898193337,1.82931678006053,7.043576074059611
0.163070951609685,1.8289599489724842,7.041444622091982
0.16368170423743664,1.828607229925856,7.039412428132449
0.16429245686518826,1.828258600764146,7.037473176547058
0.16490320949293988,1.827914034772016,7.035620517352997
0.16551396212069153,1.827573500773413,7.033848083946204
0.16612471474844315,1.8272369632403958,7.032149510650535
0.1667354673761948,1.8269043824121811,7.030518450043454
0.16734622000394642,1.8265757144238992,7.028948590015121
0.16795697263169804,1.8262509114445395,7.027433670519395
0.16856772525944969,1.8259299218235565,7.025967499975184
0.16917847788720128,1.8256126902455854,7.024543971279178
0.16978923051495293,1.825299157892718,7.023157077391591
0.17039998314270455,1.824989262613773,7.021800926458458
0.17101073577045617,1.824682939099989,7.020469756435208
0.17162148839820782,1.8243801190665636,7.019157949178289
0.17223224102595944,1.8240807314394594,7.017860043972943
0.17284299365371106,1.8237847025468885,7.016570750467146
0.1734537462814627,1.8234919563148924,7.0152849609837125
0.17406449890921433,1.8232024144664243,7.013997762183843
0.17467525153696598,1.822915996723361,7.012704446058609
0.1752860041647176,1.822632621010842,7.011400520224851
0.17589675679246922,1.8223522036633708,7.010081717506392
0.17650750942022086,1.8220746596320985,7.008744004781294
0.17711826204797246,1.821799902692714,7.007383591079319
0.1777290146757241,1.82152784565339,7.005996934915778
0.17833976730347573,1.821258400562222,7.004580750849584
0.17895051993122735,1.8209914789136228,7.003132015255745
0.179561272558979,1.8207269918531337,7.001647971304929
0.18017202518673062,1.820464850380141,7.000126133144291
0.18078277781448224,1.8202049655479786,6.998564289277184
0.18139353044223389,1.8199472486609352,6.99696050513974
0.1820042830699855,1.819691611467679,6.995313124876361
0.18261503569773715,1.8194379663506428,6.993620772316665
0.18322578832548878,1.8191862265109258,6.99188235116009
0.1838365409532404,1.8189363061482797,6.990097044375433
0.18444729358099204,1.8186881206357812,6.98826431282451
0.18505804620874364,1.818441586688794,6.986383893122752
0.18566879883649529,1.8181966225278565,6.984455794749183
0.1862795514642469,1.8179531480351538,6.982480296422488
0.18689030409199853,1.8177110849042404,6.980457941760417
0.18750105671975018,1.8174703567827206,6.978389534241368
0.1881118093475018,1.8172308894076028,6.9762761314904225
0.18872256197525342,1.8169926107330756,6.974119038911991
0.18933331460300507,1.8167554510504702,6.971919802693843
0.18994406723075669,1.8165193431002071,6.969680202208656
0.19055481985850833,1.8162842221755418,6.967402241840827
0.19116557248625995,1.8160500262179502,6.965088142267191
0.19177632511401158,1.8158166959040234,6.962740331222502
0.19238707774176322,1.815584174723762,6.96036143378051
0.19299783036951482,1.8153524090501902,6.95795426218389
0.19360858299726647,1.815121348200226,6.9555218052563355
0.19421933562501809,1.8148909444867778,6.953067217431229
0.1948300882527697,1.8146611532620605,6.950593807432658
0.19544084088052135,1.814431932952144,6.948105026644403
0.19605159350827298,1.814203245082772,6.945604457203564
0.19666234613602462,1.813975054296523,6.943095799856325
0.19727309876377624,1.813747328361388,6.940582861612477
0.19788385139152787,1.813520038170887,6.938069543237231
0.1984946040192795,1.8132931577358469,6.935559826617416
0.19910535664703113,1.8130666641679973,6.933057762040528
0.19971610927478275,1.8128405376555596,6.93056745542354
0.20032686190253438,1.8126147614310204,6.92809305552984
0.200937614530286,1.8123893217313036,6.925638741210577
0.20154836715803764,1.8121642077505742,6.923208708707795
0.20215911978578927,1.8119394115859213,6.920807159055569
0.20276987241354089,1.811714928176186,6.918438285613889
0.20338062504129253,1.8114907552342157,6.916106261770849
0.20399137766904415,1.8112668931728417,6.913815228846891
0.2046021302967958,1.8110433450248877,6.911569284233909
0.20521288292454742,1.8108201163575284,6.9093724698010845
0.20582363555229904,1.8105972151813383,6.907228760598532
0.2064343881800507,1.810374651854364,6.905142053888185
0.2070451408078023,1.810152438981579,6.903116158530101
0.2076558934355539,1.8099305913100798,6.901154784751322
0.20826664606330555,1.8097091256203808,6.899261534322646
0.20887739869105718,1.8094880606141919,6.897439891167304
0.20948815131880882,1.8092674167990475,6.895693212423914
0.21009890394656044,1.8090472163701643,6.894024719984708
0.21070965657431207,1.8088274830899114,6.892437492528098
0.2113204092020637,1.8086082421652734,6.890934458062809
0.21193116182981533,1.808389520123687,6.889518386999684
0.21254191445756698,1.8081713446876255,6.8881918857649875
0.2131526670853186,1.8079537446483165,6.886957390967287
0.21376341971307022,1.8077367497389556,6.885817164128163
0.21437417234082187,1.807520390507791,6.884773286986037
