frequency,refractiveIndex,absorption
0.0006107526277516292,2.511087578704523,0.003429735055583413
0.0012215052555032584,2.510477633891825,0.013705913043963234
0.0018322578832548875,2.5094639378188366,0.030789586665048947
0.002443010511006517,2.508050772769055,0.05461628820274429
0.003053763138758146,2.5062440635321854,0.08509668582150796
0.003664515766509775,2.504051308991871,0.12211748204120643
0.004275268394261404,2.5014814969266705,0.16554253500111749
0.004886021022013034,2.498545003942366,0.2152141788787502
0.005496773649764663,2.4952534827224495,0.2709547164485747
0.006107526277516292,2.491619738973436,0.3325680543347329
0.006718278905267922,2.487657600548959,0.39984145006538596
0.00732903153301955,2.483381781263576,0.47254733956098943
0.00793978416077118,2.4788077418585837,0.5504452141272618
0.008550536788522809,2.4739515504664795,0.6332835172821888
0.009161289416274438,2.4688297447481173,0.7208015337039646
0.009772042044026067,2.4634591976596187,0.8127312451042291
0.010382794671777697,2.4578569885565367,0.908799130761149
0.010993547299529326,2.452040281073798,1.0087278936431026
0.011604299927280955,2.446026208942544,1.1122380963774172
0.012215052555032585,2.43983177062997,1.2190496946452158
0.012825805182784214,2.433473733424176,1.3288834588059928
0.013436557810535843,2.4269685473398583,1.4414622775875157
0.014047310438287471,2.420332268997803,1.5565123404530004
0.0146580630660391,2.413580495434704,1.6737641977320918
0.015268815693790731,2.406728307631904,1.7929536997493762
0.01587956832154236,2.399790223412722,1.913822817993574
0.01649032094929399,2.392780159247108,2.036120352845838
0.017101073577045618,2.385711400418445,2.15960253354164
0.01771182620479725,2.3785965789475596,2.2840335169003594
0.018322578832548876,2.3714476586314692,2.4091857919481767
0.018933331460300507,2.364275926535504,2.5348404979143098
0.019544084088052135,2.357091990275155,2.660787663232728
0.020154836715803762,2.349905780434496,2.786826373161254
0.020765589343555393,2.3427265574896072,2.912764873472189
0.02137634197130702,2.3355629226347143,3.0384206173991
0.021987094599058652,2.3284228319443128,3.1636202626730854
0.02259784722681028,2.321313613343866,3.288199625068806
0.02320859985456191,2.314241985903471,3.4120035944294242
0.023819352482313542,2.3072140810116584,3.5348860186641153
0.02443010511006517,2.3002354650291337,3.656709560729691
0.025040857737816797,2.293311163063928,3.7773455331271957
0.025651610365568428,2.286445683549545,3.89667371397722
0.026262362993320056,2.2796430433454917,4.01458214828817
0.026873115621071687,2.2729067931150997,4.130966937607015
0.027483868248823314,2.2662400427683838,4.245732020844266
0.028094620876574942,2.2596454867876874,4.358788948696457
0.028705373504326573,2.2531254292811904,4.470056653751018
0.0293161261320782,2.2466818086340052,4.579461218051143
0.029926878759829835,2.2403162216485066,4.68693563961996
0.030537631387581463,2.234029947085149,4.792419599195008
0.03114838401533309,2.2278239685321926,4.895859228201707
0.03175913664308472,2.221698996547905,4.997206878800384
0.03236988927083635,2.2156554900318466,5.096420896668408
0.03298064189858798,2.209693676793307,5.193465397031067
0.03359139452633961,2.2038135732946382,5.288310044325714
0.034202147154091235,2.1980150035555748,5.380929835773183
0.03481289978184286,2.1922976172116813,5.471304889037437
0.0354236524095945,2.186660906726051,5.559420234075951
0.036034405037346125,2.181104223758227,5.6452656092181535
0.03664515766509775,2.1756267946985512,5.72883526145652
0.03725591029284938,2.170227735379402,5.810127750892277
0.037866662920601014,2.164906064977582,5.889145759244861
0.038477415548352635,2.159660719124287,5.965895902308859
0.03908816817610427,2.1544905622407997,6.040388546224506
0.039698920803855904,2.149394399119414,6.112637627415711
0.040309673431607525,2.144370985770134,6.182660476043798
0.04092042605935916,2.1394190395543866,6.250477642821676
0.04153117868711079,2.134537248627568,6.316112729036516
0.04214193131486242,2.1297242807125603,6.379592219632413
0.04275268394261404,2.12497879122655,6.440945319213264
0.04336343657036568,2.1202994307835845,6.500203790834941
0.043974189198117304,2.115684852095245,6.557401797467262
0.04458494182586893,2.1111337162917545,6.61257574601979
0.04519569445362056,2.1066446986856753,6.665764133837686
0.045806447081372194,2.102216494000164,6.717007397589908
0.04641719970912382,2.0978478210834983,6.766347764484795
0.04702795233687545,2.0935374271313565,6.813829105765182
0.047638704964627084,2.089284091438063,6.859496792447961
0.048249457592378704,2.0850866286976757,6.903397553289469
0.04886021022013034,2.0809438918755245,6.945579334970803
0.049470962847881966,2.0768547746705197,6.98609116451241
0.050081715475633594,2.072818213588146,7.024983013939072
0.05069246810338522,2.068833189643834,7.0623056672302
0.051303220731136856,2.0648987297159955,7.098110589600558
0.05191397335888848,2.0610139075676948,7.132449799168846
0.05252472598664011,2.05717784455561,7.165375741080091
0.053135478614391746,2.0533897100445206,7.19694116415698
0.05374623124214337,2.049648721545303,7.2271990001642745
0.054356983869895,2.0459541445939284,7.256202245775127
0.05496773649764663,2.042305292388716,7.284003847336118
0.05557848912539826,2.038701525202602,7.310656588531046
0.056189241753149884,2.0351422495868685,7.336212981047981
0.05679999438090152,2.031626917382364,7.360725158356895
0.057410747008653146,2.0281550245538322,7.384244772706414
0.05802149963640477,2.024726109862557,7.406822895449405
0.0586322522641564,2.021339753392136,7.428509920806946
0.059243004891908035,2.0179955749417267,7.449355473178933
0.05985375751965967,2.0146932323007127,7.469408318107717
0.06046451014741129,2.0114324194182807,7.488716276999004
0.061075262775162925,2.0082128644809476,7.507326145699428
0.06168601540291455,2.005034327910628,7.525283617027516
0.06229676803066618,2.0018966002954097,7.542633207348944
0.0629075206584178,1.9987995002646572,7.559418187281345
0.06351827328616944,1.9957428723197284,7.575680516608559
0.06412902591392107,1.9927265846310016,7.591460783476957
0.0647397785416727,1.9897505268115305,7.606798147939487
0.06535053116942433,1.986814607677135,7.621730289906078
0.06596128379717596,1.9839187530023086,7.6362933615504
0.0665720364249276,1.981062903280808,7.650521944214852
0.06718278905267921,1.9782470114994024,7.664449009848114
0.06779354168043085,1.975471040932743,7.678105886999609
0.06840429430818247,1.9727349629668933,7.691522231386647
0.06901504693593409,1.9700387549586271,7.704726001041832
0.06962579956368573,1.9673823981371175,7.717743436037293
0.07023655219143736,1.9647658755542683,7.730599042775112
0.070847304819189,1.9621891700894638,7.743315582822355
0.07145805744694061,1.959652262514103,7.755914066259886
0.07206881007469225,1.957155129620926,7.768413749506862
0.07267956270244387,1.954697742422649,7.780832137569412
0.0732903153301955,1.9522800644241234,7.793184990657956
0.07390106795794714,1.9499020499717752,7.805486335103542
0.07451182058569876,1.9475636426837681,7.817748478498033
0.0751225732134504,1.9452647739639255,7.829982028972573
0.07573332584120203,1.9430053616021081,7.842195918520461
0.07634407846895366,1.940785308463397,7.854397430261322
0.07695483109670527,1.9386045012680988,7.866592229536951
0.0775655837244569,1.9364628094642407,7.878784398718448
0.07817633635220854,1.9343600841939521,7.890976475599415
0.07878708897996017,1.9322961573547546,7.903169495239446
0.07939784160771181,1.9302708407565432,7.915363035117316
0.08000859423546343,1.9282839253747173,7.927555263444642
0.08061934686321505,1.9263351806996483,7.939742990484457
0.08123009949096668,1.9244243541823998,7.951921722713719
0.08184085211871832,1.9225511707763503,7.9640857196608215
0.08245160474646994,1.9207153325741075,7.976228053245539
0.08306235737422157,1.9189165185388743,7.988340669441956
0.08367311000197321,1.917154384329166,8.000414452081072
0.08428386262972484,1.9154285622155764,8.012439288604881
0.08489461525747646,1.9137386610880254,8.024404137579035
0.08550536788522808,1.9120842665517714,8.03629709776901
0.08611612051297972,1.910464941110206,8.048105478580194
0.08672687314073135,1.908880224432286,8.059815871659959
0.08733762576848299,1.90732963370227,8.071414223458214
0.08794837839623461,1.9058126640492334,8.082885908540488
0.08855913102398623,1.9043287890536744,8.094215803445866
0.08916988365173786,1.902877461328357,8.105388360883737
0.0897806362794895,1.901458113170397,8.116387684059948
0.09039138890724112,1.9000701572814314,8.127197600926102
0.09100214153499275,1.8987129875525883,8.137801738144926
0.09161289416274439,1.8973859799108606,8.1481835945674
0.09222364679049602,1.896088493223339,8.158326614018238
0.09283439941824764,1.8948198702556858,8.168214257189762
0.09344515204599926,1.8935794386811118,8.17783007244783
0.0940559046737509,1.8923665121360427,8.187157765355561
0.09466665730150253,1.8911803913185816,8.196181266727036
0.09527740992925417,1.890020365125798,8.204884799026628
0.09588816255700579,1.8888857118258469,8.213252940935988
0.09649891518475741,1.8877757002608309,8.221270689915988
0.09710966781250904,1.8866895910763317,8.228923522598063
0.09772042044026068,1.8856266379734818,8.23619745284657
0.09833117306801231,1.884586088979446,8.243079087340508
0.09894192569576393,1.8835671877321858,8.249555678532452
0.09955267832351557,1.8825691747753837,8.255615174849595
0.10016343095126719,1.8815912888594333,8.261246268011915
0.10077418357901882,1.8806327682444237,8.266438437351079
0.10138493620677044,1.8796928520011114,8.27118199102458
0.10199568883452208,1.8787707813059047,8.275468104028068
0.10260644146227371,1.8778658007259743,8.279288852920702
0.10321719409002535,1.8769771594906721,8.282637247188683
0.10382794671777695,1.8761041127455287,8.28550725718285
0.10443869934552859,1.8752459227852074,8.28789383857721
0.10504945197328022,1.8744018602618957,8.28979295330755
0.10566020460103186,1.8735712053657325,8.291201586959016
0.10627095722878349,1.872753248974024,8.292117762585839
0.10688170985653511,1.8719472937660948,8.292540550953982
0.10749246248428675,1.8711526553008089,8.29247007721284
0.10810321511203837,1.8703686630539427,8.291907524011423
0.10871396773979,1.8695946614127241,8.29085513108609
0.10932472036754162,1.8688300106250735,8.289316191358617
0.10993547299529326,1.868074087701212,8.287295043594197
0.11054622562304489,1.8673262872655063,8.284797061678562
0.11115697825079653,1.8665860223566142,8.281828640587126
0.11176773087854816,1.8658527251741543,8.278397179124479
0.11237848350629977,1.8651258477703596,8.27451105952673
0.1129892361340514,1.8644048626853247,8.270179624025964
0.11359998876180304,1.8636892635247095,8.265413148485866
0.11421074138955467,1.8629785654789024,8.260222813226212
0.11482149401730629,1.8622723057828996,8.254620671161748
0.11543224664505793,1.8615700441163228,8.248619613387548
0.11604299927280955,1.8608713629432094,8.24223333235232
0.11665375190056118,1.8601758677914084,8.235476282764083
0.1172645045283128,1.8594831874715976,8.22836364038103
0.11787525715606444,1.8587929742361464,8.220911258844719
0.11848600978381607,1.8581049038782165,8.213135624716466
0.1190967624115677,1.8574186757716877,8.205053810882932
0.11970751503931934,1.856734012852669,8.19668342849909
0.12031826766707095,1.8560506615435264,8.188042577640292
0.12092902029482258,1.8553683916205164,8.179149796835866
0.12153977292257422,1.8546869960262882,8.170024011659724
0.12215052555032585,1.8540062906286492,8.16068448255202
0.12276127817807747,1.8533261139271382,8.151150752048066
0.1233720308058291,1.8526463267090933,8.141442591588657
0.12398278343358073,1.8519668116570087,8.13157994808556
0.12459353606133236,1.8512874729091067,8.121582890413496
0.125204288689084,1.8506082355751494,8.111471555998957
0.1258150413168356,1.8499290452096222,8.10126609767178
0.12642579394458725,1.8492498672444975,8.09098663094312
0.12703654657233887,1.8485706863838742,8.080653181869382
0.12764729920009052,1.8478915059628689,8.070285635656957
0.12825805182784214,1.8472123472731616,8.05990368615883
0.12886880445559376,1.846533248857694,8.049526786407313
0.1294795570833454,1.8458542657770294,8.039174100323667
0.13009030971109703,1.8451754688499225,8.028864455737855
0.13070106233884865,1.844496943870676,8.018616298846034
0.13131181496660027,1.8438187908058743,8.008447650227044
0.13192256759435192,1.8431411229730863,7.998376062532099
0.13253332022210354,1.8424640662041298,7.988418579955041
0.1331440728498552,1.8417877579954838,7.978591699583233
0.13375482547760678,1.8411123466484045,7.968911334721459
0.13436557810535843,1.8404379904012926,7.959392780274838
0.13497633073311005,1.8397648565568085,7.950050680267144
0.1355870833608617,1.83909312060621,7.940898997565462
0.13619783598861332,1.83842296535332,7.931950985872382
0.13680858861636494,1.8377545800405115,7.923219164040436
0.13741934124411656,1.8370881594789934,7.91471529275474
0.13803009387186818,1.8364239031856737,7.906450353623107
0.13864084649961983,1.8357620145287519,7.898434530703753
0.13925159912737145,1.8351026998841693,7.890677194493776
0.1398623517551231,1.8344461678049324,7.883186888394481
0.14047310438287472,1.8337926282052686,7.875971317661354
0.14108385701062634,1.8331422915614757,7.86903734083857
0.141694609638378,1.832495368131246,7.862390963672185
0.1423053622661296,1.8318520671931555,7.856037335488209
0.14291611489388123,1.8312125963079173,7.849980748014523
0.14352686752163288,1.8305771606028989,7.844224636619292
0.1441376201493845,1.829945962081322,7.838771583932233
0.14474837277713615,1.8293191989574449,7.833623325808297
0.14535912540488774,1.8286970650189542,7.828780759587308
0.14596987803263936,1.8280797490176737,7.824243954597399
0.146580630660391,1.8274674340896067,7.8200121648443375
0.14719138328814263,1.8268602972052392,7.816083843823795
0.14780213591589428,1.826258508650907,7.81245666138769
0.1484128885436459,1.8256622315419582,7.809127522591663
0.14902364117139752,1.8250716213683282,7.806092588446299
0.14963439379914917,1.8244868255730449,7.803347298489085
0.1502451464269008,1.8239079831641003,7.800886395092017
0.15085589905465244,1.8233352243600052,7.798703949414359
0.15146665168240406,1.8227686702692778,7.79679338890737
0.15207740431015568,1.8222084326039962,7.79514752627515
0.15268815693790733,1.8216546134274727,7.793758589791334
0.15329890956565892,1.8211073049360107,7.792618254871027
0.15390966219341054,1.8205665892746197,7.791717676792785
0.1545204148211622,1.820032538386471,7.791047524465393
0.1551311674489138,1.8195052138958128,7.790598015131545
0.15574192007666546,1.8189846670239511,7.79035894989944
0.15635267270441708,1.8184709385378617,7.790319749991967
0.1569634253321687,1.8179640587308905,7.790469493603418
0.15757417795992035,1.8174640474349424,7.79079695325133
0.15818493058767197,1.8169709140634938,7.791290633513625
0.15879568321542362,1.8164846576846725,7.79193880903817
0.15940643584317524,1.8160052671236173,7.792729562714974
0.16001718847092686,1.8155327210932373,7.793650823900849
0.1606279410986785,1.815066988352455,7.794690406587217
0.1612386937264301,1.8146080278909489,7.795836047403212
0.16184944635418172,1.8141557891393636,7.7970754433483425
0.16246019898193337,1.8137102122039135,7.798396289149866
0.163070951609685,1.8132712281242451,7.7997863141428425
0.16368170423743664,1.8128387591534,7.801233318573312
0.16429245686518826,1.8124127190586716,7.802725209226209
0.16490320949293988,1.8119930134421134,7.804250034285555
0.16551396212069153,1.8115795400794314,7.805796017333211
0.16612471474844315,1.8111721892759642,7.807351590400253
0.1667354673761948,1.810770844238428,7.808905425985708
0.16734622000394642,1.810375381461082,7.810446467961215
0.16795697263169804,1.8099856711249687,7.811963961286563
0.16856772525944969,1.8096015775088465,7.813447480461973
0.16917847788720128,1.8092229594104399,7.814886956649496
0.16978923051495293,1.8088496705766288,7.816272703399464
0.17039998314270455,1.8084815601411819,7.817595440923221
0.17101073577045617,1.8081184730686626,7.818846318856939
0.17162148839820782,1.807760250603113,7.8200169374675665
0.17223224102595944,1.807406730720169,7.821099367255942
0.17284299365371106,1.8070577485812283,7.822086166917876
0.1734537462814627,1.8067131369883491,7.82297039962855
0.17406449890921433,1.8063727268385479,7.823745647621099
0.17467525153696598,1.8060363475762105,7.824406025036271
0.1752860041647176,1.8057038276423265,7.824946189022961
0.17589675679246922,1.805374994919333,7.825361349078643
0.17650750942022086,1.8050496771703262,7.825647274620077
0.17711826204797246,1.8047277024714938,7.825800300781989
0.1777290146757241,1.8044088996366154,7.825817332447533
0.17833976730347573,1.804093098632538,7.825695846516862
0.17895051993122735,1.8037801309845807,7.825433892428566
0.179561272558979,1.8034698301708498,7.825030090950725
0.18017202518673062,1.803162032004517,7.824483631265833
0.18078277781448224,1.8028565750031424,7.823794266377266
0.18139353044223389,1.8025533007441872,7.822962306870002
0.1820042830699855,1.802252054205915,7.821988613063901
0.18261503569773715,1.8019526840929276,7.820874585600305
0.18322578832548878,1.8016550431456468,7.819622154509365
0.1838365409532404,1.8013589884331056,7.818233766808048
0.18444729358099204,1.801064381628474,7.81671237268295
0.18505804620874364,1.8007710892668027,7.815061410316942
0.18566879883649529,1.8004789829845296,7.813284789420111
0.1862795514642469,1.8001879397403548,7.8113868735307825
0.18689030409199853,1.7998978420171479,7.809372461154782
0.18750105671975018,1.7996085780046172,7.80724676581291
0.1881118093475018,1.7993200417625332,7.8050153950709396
0.18872256197525342,1.7990321333643475,7.802684328628097
0.18933331460300507,1.7987447590211258,7.8002598955407665
0.18994406723075669,1.7984578311857624,7.797748750662488
0.19055481985850833,1.7981712686374993,7.795157850380408
0.19116557248625995,1.7978849965468522,7.792494427731565
0.19177632511401158,1.7975989465210687,7.7897659669819275
0.19238707774176322,1.797313056630335,7.786980177752523
0.19299783036951482,1.7970272714149764,7.784144968777874
0.19360858299726647,1.7967415418739592,7.781268421380954
0.19421933562501809,1.7964558254350538,7.778358762749913
0.1948300882527697,1.7961700859070653,7.775424339100842
0.19544084088052135,1.7958842934145844,7.772473588810868
0.19605159350827298,1.7955984243157541,7.7695150156033375
0.19666234613602462,1.7953124611036013,7.766557161868663
0.19727309876377624,1.795026392291504,7.7636085822003205
0.19788385139152787,1.7947402122834217,7.760677817224192
0.1984946040192795,1.794453921229541,7.75777336780012
0.19910535664703113,1.7941675248680182,7.7549036696686935
0.19971610927478275,1.793881034353548,7.752077068617446
0.20032686190253438,1.7935944660734935,7.749301796235772
0.200937614530286,1.7933078414523451,7.746585946325858
0.20154836715803764,1.7930211867453147,7.743937452035587
0.20215911978578927,1.7927345328218576,7.741364063773634
0.20276987241354089,1.7924479149399617,7.738873327965601
0.20338062504129253,1.7921613725120402,7.736472566706692
0.20399137766904415,1.7918749488632806,7.734168858362134
0.2046021302967958,1.7915886909833063,7.731969019162996
0.20521288292454742,1.79130264927202,7.729879585843058
0.20582363555229904,1.7910168772804949,7.727906799355205
0.2064343881800507,1.790731431447774,7.726056589705714
0.2070451408078023,1.790446370834454,7.7243345619382815
0.2076558934355539,1.790161756853899,7.722745983296528
0.20826664606330555,1.7898776530019445,7.721295771589837
0.20887739869105718,1.7895941245859244,7.719988484782466
0.20948815131880882,1.7893112384538532,7.718828311823152
0.21009890394656044,1.7890290627245702,7.7178190647271085
0.21070965657431207,1.788747666519644,7.716964171918437
0.2113204092020637,1.788467119697811,7.7162666728380405
0.21193116182981533,1.7881874925926993,7.715729213816204
0.21254191445756698,1.787908855754565,7.715354045206796
0.2131526670853186,1.7876312796967544,7.715143019775018
0.21376341971307022,1.7873548346475574,7.715097592327704
0.21437417234082187,1.7870795903081091,7.715218820570434
