frequency,refractiveIndex,absorption
0.0006107526277516292,1.4064510100316132,-0.0005313814123835155
0.0012215052555032584,1.4065578284668514,-0.002123841833193551
0.0018322578832548875,1.4067354350404975,-0.004772348927126547
0.002443010511006517,1.406983199046469,-0.008468578679016311
0.003053763138758146,1.407300248379221,-0.013201008476129464
0.003664515766509775,1.407685480051396,-0.018955044042165407
0.004275268394261404,1.4081375732148915,-0.025713177034048254
0.004886021022013034,1.4086550043432688,-0.03345516946000036
0.005496773649764663,1.4092360641916506,-0.042158260592299567
0.006107526277516292,1.4098788761256345,-0.05179739174198377
0.006718278905267922,1.4105814154022729,-0.06234544413555851
0.00732903153301955,1.4113415289932492,-0.07377348517582437
0.00793978416077118,1.4121569555614366,-0.08605101856125792
0.008550536788522809,1.4130253452337493,-0.09914623405710049
0.009161289416274438,1.4139442788538348,-0.1130262531275279
0.009772042044026067,1.4149112864443396,-0.12765736712277148
0.010382794671777697,1.4159238646574739,-0.1430052652389139
0.010993547299529326,1.4169794930423005,-0.1590352500051585
0.011604299927280955,1.41807564900503,-0.17571243858069666
0.012215052555032585,1.4192098213834816,-0.1930019486432629
0.012825805182784214,1.4203795225971731,-0.21086906810902817
0.013436557810535843,1.4215822993695881,-0.22927940833175248
0.014047310438287471,1.4228157420490235,-0.2481990407794879
0.0146580630660391,1.4240774925780737,-0.26759461748234903
0.015268815693790731,1.4253652511809225,-0.28743347578060746
0.01587956832154236,1.4266767818508785,-0.30768372808753175
0.01649032094929399,1.4280099167300344,-0.32831433751588085
0.017101073577045618,1.4293625594781438,-0.34929518030938006
0.01771182620479725,1.4307326877299642,-0.3705970960750991
0.018322578832548876,1.4321183547395955,-0.39219192683683657
0.018933331460300507,1.4335176903077844,-0.4140525459277334
0.019544084088052135,1.4349289010838076,-0.4361528777188197
0.020154836715803762,1.4363502703281523,-0.45846790914371094
0.020765589343555393,1.4377801572160542,-0.48097369393141254
0.02137634197130702,1.4392169957554042,-0.5036473504046893
0.021987094599058652,1.4406592933856863,-0.5264670536408652
0.02259784722681028,1.4421056293179828,-0.5494120227310921
0.02320859985456191,1.443554652669494,-0.5724625038113893
0.023819352482313542,1.4450050804397683,-0.5955997494781614
0.02443010511006517,1.4464556953699752,-0.6188059951433293
0.025040857737816797,1.447905343721197,-0.6420644328268248
0.025651610365568428,1.4493529330025587,-0.6653591828349477
0.026262362993320056,1.4507974296756423,-0.6886752637229139
0.026873115621071687,1.4522378568574423,-0.711998560896997
0.027483868248823314,1.4536732920405084,-0.7353157941708255
0.028094620876574942,1.4551028648456832,-0.7586144845549584
0.028705373504326573,1.456525754819959,-0.7818829205246388
0.0293161261320782,1.4579411892894656,-0.8051101239831353
0.029926878759829835,1.4593484412754691,-0.8282858161103788
0.030537631387581463,1.4607468274793607,-0.8514003832639899
0.03114838401533309,1.4621357063408864,-0.8744448430797338
0.03175913664308472,1.4635144761726637,-0.8974108108992632
0.03236988927083635,1.4648825733726627,-0.9202904666377951
0.03298064189858798,1.466239470715469,-0.9430765221896601
0.03359139452633961,1.467584675722207,-0.9657621894577836
0.034202147154091235,1.4689177291083724,-0.988341149081876
0.03481289978184286,1.4702382033082113,-1.0108075199304103
0.0354236524095945,1.4715457010738382,-1.0331558294130978
0.036034405037346125,1.4728398541469196,-1.0553809846629363
0.03664515766509775,1.4741203220003674,-1.0774782446306415
0.03725591029284938,1.4753867906474234,-1.0994431931271664
0.037866662920601014,1.4766389715151902,-1.121271712846164
0.038477415548352635,1.477876600379626,-1.142959960392071
0.03908816817610427,1.4790994363589305,-1.16450434233583
0.039698920803855904,1.4803072609622265,-1.185901492316355
0.040309673431607525,1.4814998771903876,-1.207148249201174
0.04092042605935916,1.4826771086859243,-1.2282416363177275
0.04153117868711079,1.4838387989288837,-1.2491788417618928
0.04214193131486242,1.4849848104757166,-1.2699571997890577
0.04275268394261404,1.486115024238237,-1.2905741732885303
0.04336343657036568,1.48722933879977,-1.3110273373405668
0.043974189198117304,1.488327669765767,-1.3313143638521348
0.04458494182586893,1.4894099491462611,-1.351433007264916
0.04519569445362056,1.490476124767563,-1.3713810913275302
0.045806447081372194,1.491526159710837,-1.3911564969202073
0.04641719970912382,1.4925600317752084,-1.4107571509194214
0.04702795233687545,1.493577732963248,-1.4301810160867485
0.047638704964627084,1.494579268986724,-1.4494260819653912
0.048249457592378704,1.4955646587907407,-1.4684903567637382
0.04886021022013034,1.4965339340943533,-1.487371860207077
0.049470962847881966,1.4974871389460844,-1.5060686173316749
0.050081715475633594,1.4984243292926065,-1.5245786531999665
0.05069246810338522,1.4993455725592557,-1.5428999885080699
0.051303220731136856,1.5002509472409444,-1.5610306360599902
0.05191397335888848,1.5011405425022741,-1.5789685980782258
0.05252472598664011,1.50201445778568,-1.596711864322085
0.053135478614391746,1.5028728024265996,-1.6142584109812654
0.05374623124214337,1.5037156952747464,-1.631606200312955
0.054356983869895,1.5045432643206167,-1.6487531809894025
0.05496773649764663,1.5053556463265163,-1.6656972891218658
0.05557848912539826,1.5061529864614407,-1.6824364499260673
0.056189241753149884,1.5069354379392448,-1.698968579994156
0.05679999438090152,1.5077031616595988,-1.715291590137411
0.057410747008653146,1.5084563258512973,-1.7314033887638125
0.05802149963640477,1.5091951057175965,-1.7473018857537645
0.0586322522641564,1.5099196830832766,-1.7629849967975122
0.059243004891908035,1.510630246043186,-1.7784506481585267
0.05985375751965967,1.5113269886121274,-1.7936967818248677
0.06046451014741129,1.5120101103759347,-1.8087213610133053
0.061075262775162925,1.5126798161436783,-1.823522375989596
0.06168601540291455,1.5133363156009718,-1.838097850168811
0.06229676803066618,1.5139798229643764,-1.8524458464598232
0.0629075206584178,1.5146105566369654,-1.866564473819256
0.06351827328616944,1.5152287388650905,-1.8804518939799284
0.06412902591392107,1.5158345953965036,-1.8941063283189996
0.0647397785416727,1.5164283551399311,-1.9075260648322383
0.06535053116942433,1.5170102498262503,-1.9207094651819672
0.06596128379717596,1.5175805136714788,-1.933654971784782
0.0665720364249276,1.518139383041748,-1.9463611149079894
0.06718278905267921,1.518687096120456,-1.9588265197436436
0.06779354168043085,1.5192238925778756,-1.9710499134286434
0.06840429430818247,1.5197500132433848,-1.983030131982547
0.06901504693593409,1.5202656997806494,-1.9947661271325168
0.06962579956368573,1.520771194365944,-2.0062569729979387
0.07023655219143736,1.52126673936992,-2.017501872607411
0.070847304819189,1.521752577043097,-2.0285001642205334
0.07145805744694061,1.5222289492053371,-2.039251327429262
0.07206881007469225,1.5226960969396006,-2.0497549890131697
0.07267956270244387,1.5231542602902959,-2.060010928524953
0.0732903153301955,1.5236036779664748,-2.0700190835825487
0.07390106795794714,1.5240445870502417,-2.07977955484457
0.07451182058569876,1.5244772227106074,-2.089292610648894
0.0751225732134504,1.524901817923162,-2.0985586912921845
0.07573332584120203,1.5253186031958368,-2.107578412931888
0.07634407846895366,1.5257278063010962,-2.116352571090324
0.07695483109670527,1.5261296520148568,-2.12488214374465
0.0775655837244569,1.526524361862458,-2.1331682939851726
0.07817633635220854,1.5269121538720245,-2.141212372225452
0.07878708897996017,1.5272932423355097,-2.1490159179514565
0.07939784160771181,1.5276678375777615,-2.1565806609943676
0.08000859423546343,1.52803614573393,-2.163908522316131
0.08061934686321505,1.5283983685355345,-2.171001614295695
0.08123009949096668,1.528754703105515,-2.1778622405067547
0.08184085211871832,1.5291053417625675,-2.1844928949787303
0.08245160474646994,1.5294504718351076,-2.1908962609326026
0.08306235737422157,1.5297902754851416,-2.1970752089878713
0.08367311000197321,1.5301249295423651,-2.2030327948349435
0.08428386262972484,1.5304546053487855,-2.2087722563709464
0.08489461525747646,1.5307794686141494,-2.214297010297724
0.08550536788522808,1.531099679282467,-2.21961064818296
0.08611612051297972,1.5314153914098956,-2.2247169319859754
0.08672687314073135,1.5317267530542389,-2.2296197890527956
0.08733762576848299,1.5320339061763106,-2.2343233065857406
0.08794837839623461,1.5323369865533842,-2.238831725595557
0.08855913102398623,1.532636123704954,-2.2431494343441227
0.08916988365173786,1.5329314408309727,-2.247280961291028
0.0897806362794895,1.5332230547627688,-2.251230967554494
0.09039138890724112,1.5335110759267754,-2.2550042389029126
0.09100214153499275,1.5337956083211939,-2.258605677293794
0.09161289416274439,1.5340767495057015,-2.2620402919776943
0.09222364679049602,1.5343545906042804,-2.2653131901876544
0.09283439941824764,1.5346292163211892,-2.268429567437135
0.09344515204599926,1.5349007049701158,-2.2713946974490735
0.0940559046737509,1.5351691285164877,-2.2742139217420156
0.09466665730150253,1.5354345526328725,-2.2768926389014656
0.09527740992925417,1.5356970367674152,-2.279436293563098
0.09588816255700579,1.5359566342251614,-2.281850365140418
0.09649891518475741,1.5362133922621262,-2.284140356327511
0.09710966781250904,1.5364673521919265,-2.2863117814088407
0.09772042044026068,1.5367185495047266,-2.288370154412528
0.09833117306801231,1.5369670139982514,-2.2903209771403996
0.09894192569576393,1.5372127699205471,-2.292169727112103
0.09955267832351557,1.5374558361241635,-2.293921845460316
0.10016343095126719,1.53769622623138,-2.2955827248138156
0.10077418357901882,1.5379339488100467,-2.2971576972082706
0.10138493620677044,1.5381690075596202,-2.2986520220617797
0.10199568883452208,1.5384014015068785,-2.300070874255859
0.10260644146227371,1.5386311252108265,-2.301419332358614
0.10321719409002535,1.538858168976243,-2.3027023670312077
0.10382794671777695,1.539082519075264,-2.3039248296543886
0.10443869934552859,1.539304157976433,-2.3050914412146546
0.10504945197328022,1.539523064580562,-2.3062067814862095
0.10566020460103186,1.5397392144627613,-2.3072752785469515
0.10627095722878349,1.539952580119955,-2.308301198662632
0.10688170985653511,1.5401631312231823,-2.3092886365758685
0.10749246248428675,1.5403708348739784,-2.310241506231451
0.10810321511203837,1.5405756558641095,-2.3111635319719066
0.10871396773979,1.540777556937915,-2.312058240232183
0.10932472036754162,1.5409764990565178,-2.3129289517639733
0.10993547299529326,1.5411724416631563,-2.3137787744150846
0.11054622562304489,1.5413653429488785,-2.314610596490163
0.11115697825079653,1.5415551601178383,-2.315427080716185
0.11176773087854816,1.5417418496514752,-2.316230658831591
0.11237848350629977,1.5419253675707956,-2.317023526821097
0.1129892361340514,1.5421056696960624,-2.3178076408098387
0.11359998876180304,1.5422827119031473,-2.318584713632569
0.11421074138955467,1.542456450375848,-2.319356212089713
0.11482149401730629,1.5426268418535014,-2.32012335489905
0.11543224664505793,1.5427938438732018,-2.320887111349998
0.11604299927280955,1.5429574150059937,-2.3216482006662003
0.11665375190056118,1.5431175150864316,-2.322407092076738
0.1172645045283128,1.5432741054348893,-2.3231640055971328
0.11787525715606444,1.5434271490720934,-2.3239189135160165
0.11848600978381607,1.5435766109253137,-2.324671542583573
0.1190967624115677,1.5437224580257332,-2.325421376893314
0.11970751503931934,1.5438646596965426,-2.326167661447517
0.12031826766707095,1.5440031877312899,-2.3269094063954188
0.12092902029482258,1.5441380165621408,-2.327645391927454
0.12153977292257422,1.5442691234176533,-2.3283741738131662
0.12215052555032585,1.5443964884697718,-2.329094089560138
0.12276127817807747,1.5445200949697357,-2.329803265177942
0.1233720308058291,1.5446399293726791,-2.3304996225226953
0.12398278343358073,1.5447559814507028,-2.331180887199319
0.12459353606133236,1.5448682443942525,-2.3318445969966284
0.125204288689084,1.5449767149016673,-2.332488110828793
0.1258150413168356,1.5450813932568195,-2.3331086181544856
0.12642579394458725,1.545182283394761,-2.333703148845768
0.12703654657233887,1.5452793929553912,-2.334268583474214
0.12764729920009052,1.5453727333251197,-2.3348016639865063
0.12825805182784214,1.5454623196666069,-2.3352990047331788
0.12886880445559376,1.545548170936637,-2.335757103820959
0.1294795570833454,1.5456303098922555,-2.3361723547527338
0.13009030971109703,1.5457087630853068,-2.336541058322482
0.13070106233884865,1.5457835608455353,-2.3368594347293
0.13131181496660027,1.5458547372524782,-2.3371236358766456
0.13192256759435192,1.5459223300963543,-2.337329757820611
0.13253332022210354,1.5459863808282162,-2.337473853332332
0.1331440728498552,1.546046934499645,-2.3375519445389146
0.13375482547760678,1.546104039692283,-2.337560035608311
0.13436557810535843,1.5461577484375415,-2.337494125441222
0.13497633073311005,1.54620811612681,-2.337350220336834
0.1355870833608617,1.5462552014125541,-2.337124346596554
0.13619783598861332,1.546299066100655,-2.3368125630321845
0.13680858861636494,1.5463397750344159,-2.3364109733440452
0.13741934124411656,1.5463773959706228,-2.3359157383364497
0.13803009387186818,1.5464119994481034,-2.335323087937589
0.13864084649961983,1.5464436586492099,-2.3346293329916534
0.13925159912737145,1.5464724492546809,-2.3338308767924496
0.1398623517551231,1.5464984492923455,-2.3329242263276506
0.14047310438287472,1.546521738980115,-2.3319060032047605
0.14108385701062634,1.546542400563776,-2.330772954229157
0.141694609638378,1.5465605181500213,-2.3295219616083815
0.1423053622661296,1.5465761775352465,-2.328150052753583
0.14291611489388123,1.5465894660305701,-2.3266544096556205
0.14352686752163288,1.5466004722835962,-2.3250323778087227
0.1441376201493845,1.5466092860974017,-2.3232814746605746
0.14474837277713615,1.5466159982472518,-2.321399397566084
0.14535912540488774,1.546620700295542,-2.319384031223922
0.14596987803263936,1.5466234844054614,-2.31723345457816
0.146580630660391,1.5466244431538825,-2.314945947163929
0.14719138328814263,1.546623669343955,-2.3125199948854362
0.14780213591589428,1.5466212558179122,-2.3099542952059218
0.1484128885436459,1.5466172952705655,-2.3072477617406437
0.14902364117139752,1.5466118800639674,-2.304399528238143
0.14963439379914917,1.546605102043729,-2.3014089519403975
0.1502451464269008,1.5465970523574453,-2.298275616313
0.15085589905465244,1.5465878212756972,-2.294999333138557
0.15146665168240406,1.5465774980160845,-2.2915801439666987
0.15207740431015568,1.5465661705707276,-2.2880183209182587
0.15268815693790733,1.5465539255376608,-2.2843143668411567
0.15329890956565892,1.5465408479565537,-2.2804690148169535
0.15390966219341054,1.5465270211491577,-2.276483227020839
0.1545204148211622,1.5465125265648711,-2.2723581929363954
0.1551311674489138,1.5464974436318086,-2.2680953269324307
0.15574192007666546,1.54648184961373,-2.2636962652072916
0.15635267270441708,1.5464658194731904,-2.2591628621084565
0.1569634253321687,1.5464494257412298,-2.2544971858396425
0.15757417795992035,1.5464327383939251,-2.249701513566408
0.15818493058767197,1.5464158247360908,-2.2447783259343157
0.15879568321542362,1.5463987492924203,-2.2397303010145313
0.15940643584317524,1.5463815737062976,-2.234560307696382
0.16001718847092686,1.5463643566465426,-2.2292713985423607
0.1606279410986785,1.5463471537222777,-2.2238668021298187
0.1612386937264301,1.546330017406119,-2.218349914899252
0.16184944635418172,1.5463129969658596,-2.212724292532671
0.16246019898193337,1.5462961384047795,-2.2069936408895887
0.163070951609685,1.5462794844107055,-2.2011618065243215
0.16368170423743664,1.5462630743139207,-2.195232766815037
0.16429245686518826,1.5462469440539808,-2.189210619731626
0.16490320949293988,1.5462311261554924,-2.183099573274503
0.16551396212069153,1.5462156497128667,-2.176903934614444
0.16612471474844315,1.5462005403840353,-2.170628098967287
0.1667354673761948,1.5461858203931036,-2.164276538235402
0.16734622000394642,1.5461715085418812,-2.157853789450418
0.16795697263169804,1.5461576202301928,-2.151364443053836
0.16856772525944969,1.5461441674848753,-2.144813131047212
0.16917847788720128,1.5461311589973137,-2.1382045150511475
0.16978923051495293,1.5461186001693543,-2.131543274308146
0.17039998314270455,1.5461064931674244,-2.1248340936639516
0.17101073577045617,1.5460948369846246,-2.1180816515666905
0.17162148839820782,1.5460836275105863,-2.111290608117616
0.17223224102595944,1.546072857608824,-2.1044655932113145
0.17284299365371106,1.5460625172013145,-2.097611194800178
0.1734537462814627,1.5460525933599985,-2.090731947319141
0.17406449890921433,1.5460430704048977,-2.0838323203051927
0.17467525153696598,1.5460339300085093,-2.0769167072458155
0.1752860041647176,1.5460251513061167,-2.0699894146909332
0.17589675679246922,1.5460167110116707,-2.063054651657772
0.17650750942022086,1.546008583538831,-2.0561165193644735
0.17711826204797246,1.5460007411267962,-2.0491790013181914
0.1777290146757241,1.5459931539705003,-2.042245953790472
0.17833976730347573,1.5459857903547631,-2.03532109670437
0.17895051993122735,1.5459786167919671,-2.0284080049622806
0.179561272558979,1.5459715981628213,-2.021510100237655
0.18017202518673062,1.5459646978597823,-2.0146306432528847
0.18078277781448224,1.5459578779326768,-2.007772726567411
0.18139353044223389,1.545951099236084,-2.000939267892654
0.1820042830699855,1.5459443215780244,-1.9941330039536798
0.18261503569773715,1.5459375038695167,-1.9873564849120176
0.18322578832548878,1.545930604274543,-1.9806120693647589
0.1838365409532404,1.5459235803599884,-1.973901919931685
0.18444729358099204,1.545916389245115,-1.9672279994393311
0.18505804620874364,1.545908987750132,-1.9605920677123536
0.18566879883649529,1.5459013325434516,-1.9539956789753197
0.1862795514642469,1.5458933802871964,-1.9474401798715024
0.18689030409199853,1.5458850877805699,-1.9409267080993908
0.18750105671975018,1.5458764121006912,-1.9344561916664231
0.1881118093475018,1.545867310740505,-1.9280293487596634
0.18872256197525342,1.5458577417434163,-1.9216466882274197
0.18933331460300507,1.5458476638342833,-1.9153085106670242
0.18994406723075669,1.54583703654644,-1.909014910111032
0.19055481985850833,1.5458258203444268,-1.9027657763018357
0.19116557248625995,1.5458139767421262,-1.8965607975437608
0.19177632511401158,1.545801468416025,-1.890399464117816
0.19238707774176322,1.5457882593133299,-1.884281072246919
0.19299783036951482,1.5457743147546985,-1.8782047285930146
0.19360858299726647,1.545759601531359,-1.8721693552688907
0.19421933562501809,1.5457440879964082,-1.8661736953454218
0.1948300882527697,1.5457277441501083,-1.8602163188329592
0.19544084088052135,1.5457105417190236,-1.8542956291152393
0.19605159350827298,1.5456924542288406,-1.848409869811923
0.19666234613602462,1.5456734570707673,-1.8425571320459555
0.19727309876377624,1.5456535275613952,-1.8367353620902378
0.19788385139152787,1.5456326449959623,-1.830942369366552
0.1984946040192795,1.5456107906949426,-1.8251758347698916
0.19910535664703113,1.5455879480439365,-1.8194333192915462
0.19971610927478275,1.5455641025268447,-1.813712272909276
0.20032686190253438,1.5455392417523217,-1.8080100437188895
0.200937614530286,1.5455133554735443,-1.80232388727466
0.20154836715803764,1.5454864356013283,-1.7966509761110676
0.20215911978578927,1.545458476210666,-1.7909884094139614
0.20276987241354089,1.5454294735407557,-1.785333222810542
0.20338062504129253,1.545399425988633,-1.779682398250203
0.20399137766904415,1.5453683340965108,-1.7740328739421238
0.2046021302967958,1.5453362005329716,-1.768381554322013
0.20521288292454742,1.545303030068154,-1.7627253200174464
0.20582363555229904,1.545268829543105,-1.7570610377800402
0.2064343881800507,1.545233607833473,-1.7513855703581873
0.2070451408078023,1.5451973758077415,-1.745695786278272
0.2076558934355539,1.5451601462802091,-1.7399885695079929
0.20826664606330555,1.5451219339589317,-1.7342608289729329
