frequency,refractiveIndex,absorption
0.0006107526277516292,1.5758293438211526,-0.0003955196700750107
0.0012215052555032584,1.5758670757324544,-0.0015820700298409037
0.0018322578832548875,1.5759299122329204,-0.0035596248052257233
0.002443010511006517,1.5760177784043077,-0.006328139130338257
0.003053763138758146,1.5761305695794123,-0.009887547933504682
0.003664515766509775,1.576268151559838,-0.014237763677184514
0.004275268394261404,1.576430360895126,-0.01937867345134693
0.004886021022013034,1.5766170052227144,-0.02531013542002262
0.005496773649764663,1.5768278636678252,-0.03203197462092518
0.006107526277516292,1.5770626873025566,-0.03954397811850945
0.006718278905267922,1.5773211996630754,-0.0478458895113741
0.00732903153301955,1.577603097323769,-0.056937402795820435
0.00793978416077118,1.5779080505271639,-0.0668181555884314
0.008550536788522809,1.5782357038681616,-0.07748772171180505
0.009161289416274438,1.5785856770311095,-0.08894560314934936
0.009772042044026067,1.5789575655781654,-0.10119122137662064
0.010382794671777697,1.5793509417871159,-0.11422390807929342
0.010993547299529326,1.5797653555369544,-0.12804289526973467
0.011604299927280955,1.5802003352392195,-0.14264730481728
0.012215052555032585,1.580655388813042,-0.1580361374101906
0.012825805182784214,1.5811300047019017,-0.1742082609700861
0.013436557810535843,1.581623652929717,-0.1911623985438341
0.014047310438287471,1.5821357861941263,-0.2088971157004908
0.0146580630660391,1.5826658409944452,-0.22741080746571052
0.015268815693790731,1.5832132387918727,-0.24670168482920413
0.01587956832154236,1.5837773871994316,-0.26676776086516557
0.01649032094929399,1.5843576811989284,-0.2876068365097928
0.017101073577045618,1.5849535043822607,-0.30921648604398244
0.01771182620479725,1.585564230214302,-0.33159404233345413
0.018322578832548876,1.586189223314496,-0.3547365818827461
0.018933331460300507,1.586827840754175,-0.3786409097633758
0.019544084088052135,1.587479433366733,-0.4033035444803193
0.020154836715803762,1.588143347067472,-0.4287207028448077
0.020765589343555393,1.5888189241801318,-0.45488828492438593
0.02137634197130702,1.5895055047668492,-0.48180185914503093
0.021987094599058652,1.5902024279583686,-0.5094566476221596
0.02259784722681028,1.5909090332812845,-0.5378475118005069
0.02320859985456191,1.591624661979005,-0.5669689384845233
0.023819352482313542,1.5923486583230966,-0.5968150263424556
0.02443010511006517,1.5930803709117183,-0.6273794729690453
0.025040857737816797,1.5938191539517816,-0.6586555625916369
0.025651610365568428,1.5945643685214455,-0.6906361545051632
0.026262362993320056,1.5953153838097034,-0.7233136723208926
0.026873115621071687,1.5960715783295847,-0.7566800941127314
0.027483868248823314,1.5968323411018068,-0.7907269435433385
0.028094620876574942,1.5975970728055469,-0.8254452820504725
0.028705373504326573,1.5983651868931417,-0.8608257021704929
0.0293161261320782,1.5991361106655875,-0.8968583220734224
0.029926878759829835,1.5999092863057442,-0.9335327813794287
0.030537631387581463,1.6006841718663332,-0.9708382383225892
0.03114838401533309,1.601460242209841,-1.0087633683220536
0.03175913664308472,1.6022369898975404,-1.0472963640162354
0.03236988927083635,1.603013926025172,-1.086424936808139
0.03298064189858798,1.603790581002643,-1.1261363199651462
0.03359139452633961,1.6045665052756721,-1.1664172733076756
0.034202147154091235,1.6053412699870702,-1.20725408951584
0.03481289978184286,1.6061144675759027,-1.2486326020737473
0.0354236524095945,1.606885712312708,-1.2905381948644772
0.036034405037346125,1.6076546407693793,-1.332955813419676
0.03664515766509775,1.608420912222297,-1.3758699778202788
0.03725591029284938,1.6091842089878294,-1.419264797235343
0.037866662920601014,1.6099442366892733,-1.4631239860786949
0.038477415548352635,1.6107007244547271,-1.5074308817533353
0.03908816817610427,1.6114534250456483,-1.5521684639463744
0.039698920803855904,1.6122021149159524,-1.5973193754282318
0.040309673431607525,1.612946594201942,-1.6428659443015061
0.04092042605935916,1.6136866866435164,-1.6887902076384467
0.04153117868711079,1.6144222394374177,-1.7350739364364074
0.04214193131486242,1.6151531230234213,-1.781698661815609
0.04275268394261404,1.6158792308048304,-1.8286457023752278
0.04336343657036568,1.6166004788046475,-1.8758961926180042
0.043974189198117304,1.6173168052591989,-1.9234311123482941
0.04458494182586893,1.6180281701511494,-1.9712313169423468
0.04519569445362056,1.618734554684042,-2.019277568385709
0.045806447081372194,1.6194359607007915,-2.0675505669676326
0.04641719970912382,1.6201324100486185,-2.1160309835199023
0.04702795233687545,1.6208239438932162,-2.1646994920837423
0.047638704964627084,1.621510621985068,-2.213536802886709
0.048249457592378704,1.6221925218808937,-2.2625236955097674
0.04886021022013034,1.6228697381234536,-2.311641052124188
0.049470962847881966,1.62354238138307,-2.3608698906758074
0.050081715475633594,1.6242105775641063,-2.410191397898165
0.05069246810338522,1.6248744668800406,-2.4595869620323287
0.051303220731136856,1.6255342029005586,-2.5090382051368896
0.05191397335888848,1.6261899515742895,-2.5585270148708403
0.05252472598664011,1.6268418902307955,-2.6080355756361357
0.053135478614391746,1.627490206565405,-2.6575463989692953
0.05374623124214337,1.6281350976105502,-2.7070423530752903
0.054356983869895,1.628776768697113,-2.7565066914008667
0.05496773649764663,1.6294154324094479,-2.8059230801484714
0.05557848912539826,1.6300513075374383,-2.8552756246381517
0.056189241753149884,1.6306846180291783,-2.904548894427531
0.05679999438090152,1.631315591947486,-2.9537279471085283
0.057410747008653146,1.6319444604336177,-3.0027983507018288
0.05802149963640477,1.6325714566813043,-3.0517462045786847
0.0586322522641564,1.6331968149241745,-3.100558158844299
0.059243004891908035,1.6338207694394988,-3.1492214321233005
0.05985375751965967,1.634443553571075,-3.1977238276945803
0.06046451014741129,1.6350653987739212,-3.246053747928669
0.061075262775162925,1.6356865336833202,-3.2942002069877216
0.06168601540291455,1.6363071832106226,-3.3421528417538147
0.06229676803066618,1.6369275676680795,-3.3899019209578274
0.0629075206584178,1.6375479019247503,-3.4374383524885412
0.06351827328616944,1.6381683945955041,-3.484753688866394
0.06412902591392107,1.6387892472648986,-3.5318401308727845
0.0647397785416727,1.6394106537476005,-3.57869052933267
0.06535053116942433,1.640032799386817,-3.625298385053541
0.06596128379717596,1.6406558603921482,-3.671657846929167
0.0665720364249276,1.641280003218053,-3.717763708223233
0.06718278905267921,1.6419053839839708,-3.7636114010526702
0.06779354168043085,1.6425321479370423,-3.8091969890962254
0.06840429430818247,1.6431604289582358,-3.8545171585579303
0.06901504693593409,1.643790349112496,-3.899569207422491
0.06962579956368573,1.644422018243441,-3.94435103304131
0.07023655219143736,1.6450555336129982,-3.9888611180951057
0.070847304819189,1.6456909795862744,-4.033098514982071
0.07145805744694061,1.64632842736174,-4.077062828685062
0.07206881007469225,1.6469679347468034,-4.120754198176145
0.07267956270244387,1.6476095459786808,-4.1641732764192625
0.0732903153301955,1.6482532915903334,-4.207321209037238
0.07390106795794714,1.6488991883212132,-4.25019961171153
0.07451182058569876,1.6495472390723722,-4.292810546387143
0.0751225732134504,1.6501974329054232,-4.335156496358332
0.07573332584120203,1.6508497450848079,-4.3772403403134685
0.07634407846895366,1.6515041371625934,-4.419065325420403
0.07695483109670527,1.6521605571050701,-4.4606350395365
0.0775655837244569,1.6528189394602364,-4.501953382629598
0.07817633635220854,1.6534792055652483,-4.543024537498332
0.07878708897996017,1.6541412637927413,-4.583852939883753
0.07939784160771181,1.6548050098349485,-4.624443248062887
0.08000859423546343,1.6554703270243771,-4.66480031202045
0.08061934686321505,1.656137086689795,-4.704929142293127
0.08123009949096668,1.6568051485461504,-4.744834878583781
0.08184085211871832,1.6574743611170182,-4.784522758243539
0.08245160474646994,1.65814456218809,-4.823998084719522
0.08306235737422157,1.6588155792901451,-4.863266196068324
0.08367311000197321,1.6594872302098802,-4.9023324336331
0.08428386262972484,1.6601593235268943,-4.941202110985394
0.08489461525747646,1.6608316591751862,-4.979880483227189
0.08550536788522808,1.661504029027244,-5.018372716754422
0.08611612051297972,1.662176217498954,-5.056683859577453
0.08672687314073135,1.6628480021734686,-5.094818812294378
0.08733762576848299,1.6635191544420038,-5.132782299811265
0.08794837839623461,1.6641894401596744,-5.170578843902517
0.08855913102398623,1.6648586203143079,-5.208212736699967
0.08916988365173786,1.665526451706205,-5.245688015199677
0.0897806362794895,1.6661926876367794,-5.283008436869737
0.09039138890724112,1.666857078603963,-5.3201774564413595
0.09100214153499275,1.6675193730022975,-5.357198203960063
0.09161289416274439,1.6681793178255442,-5.39407346417245
0.09222364679049602,1.668836659369746,-5.430805657315842
0.09283439941824764,1.6694911439345475,-5.467396821378772
0.09344515204599926,1.6701425185207062,-5.50384859589018
0.0940559046737509,1.6707905315216613,-5.540162207294657
0.09466665730150253,1.6714349334070877,-5.576338455962289
0.09527740992925417,1.6720754773963802,-5.6123777048776535
0.09588816255700579,1.6727119201200282,-5.648279870047371
0.09649891518475741,1.6733440222669056,-5.684044412657924
0.09710966781250904,1.6739715492155662,-5.719670333009644
0.09772042044026068,1.6745942716476403,-5.755156166246973
0.09833117306801231,1.6752119661415092,-5.7904999798994945
0.09894192569576393,1.6758244157445568,-5.825699373237791
0.09955267832351557,1.6764314105222557,-5.860751478447091
0.10016343095126719,1.6770327480826006,-5.895652963609119
0.10077418357901882,1.6776282340742592,-5.930400037480922
0.10138493620677044,1.6782176826571722,-5.9649884560491975
0.10199568883452208,1.6788009169441798,-5.999413530832957
0.10260644146227371,1.679377769412543,-6.033670138902196
0.10321719409002535,1.679948082284251,-6.067752734571643
0.10382794671777695,1.6805117078741192,-6.101655362723454
0.10443869934552859,1.6810685089048274,-6.135371673707203
0.10504945197328022,1.6816183587881561,-6.168894939757875
0.10566020460103186,1.6821611418718105,-6.20221807286904
0.10627095722878349,1.6826967536513204,-6.235333644050958
0.10688170985653511,1.683225100946633,-6.26823390390144
0.10749246248428675,1.6837461020432265,-6.300910804406183
0.10810321511203837,1.6842596867975237,-6.3333560218912375
0.10871396773979,1.6847657967067085,-6.365560981035163
0.10932472036754162,1.6852643849430258,-6.39751687985247
0.10993547299529326,1.6857554163528505,-6.4292147155537025
0.11054622562304489,1.686238867420878,-6.460645311185896
0.11115697825079653,1.686714726199972,-6.491799342952786
0.11176773087854816,1.687182992207251,-6.522667368114776
0.11237848350629977,1.687643676287141,-6.553239853366457
0.1129892361340514,1.6880968004422416,-6.583507203586542
0.11359998876180304,1.6885423976329044,-6.613459790857894
0.11421074138955467,1.6889805115465903,-6.643087983651358
0.11482149401730629,1.6894111963380805,-6.672382176071338
0.11543224664505793,1.6898345163417827,-6.701332817057583
0.11604299927280955,1.6902505457573769,-6.729930439443084
0.11665375190056118,1.690659368310174,-6.758165688765561
0.1172645045283128,1.6910610768875955,-6.786029351734558
0.11787525715606444,1.6914557731532485,-6.813512384256567
0.11848600978381607,1.6918435671401302,-6.840605938925663
0.1190967624115677,1.6922245768245072,-6.867301391885974
0.11970751503931934,1.692598927682124,-6.893590368980122
0.12031826766707095,1.6929667522283045,-6.919464771098009
0.12092902029482258,1.693328189543698,-6.944916798644349
0.12153977292257422,1.6936833847872725,-6.9699389750495255
0.12215052555032585,1.6940324886982785,-6.994524169250142
0.12276127817807747,1.6943756570888777,-7.018665617069724
0.1233720308058291,1.6947130503291075,-7.042356941437365
0.12398278343358073,1.6950448328258911,-7.065592171383962
0.12459353606133236,1.69537117249773,-7.0883657597611665
0.125204288689084,1.6956922402467518,-7.110672599633057
0.1258150413168356,1.696008209429734,-7.1325080392970595
0.12642579394458725,1.696319255329696,-7.153867895891019
0.12703654657233887,1.696625554629612,-7.174748467555465
0.12764729920009052,1.6969272848897978,-7.19514654411652
0.12825805182784214,1.6972246240304303,-7.215059416267665
0.12886880445559376,1.6975177498206466,-7.234484883228497
0.1294795570833454,1.697806839375614,-7.253421258866039
0.13009030971109703,1.6980920686629315,-7.271867376266138
0.13070106233884865,1.6983736120195931,-7.289822590753281
0.13131181496660027,1.6986516416808248,-7.30728678135251
0.13192256759435192,1.6989263273219009,-7.32426035070227
0.13253332022210354,1.6991978356140895,-7.340744223422689
0.1331440728498552,1.6994663297957842,-7.3567398429534645
0.13375482547760678,1.6997319692597903,-7.372249166878415
0.13436557810535843,1.6999949091577236,-7.3872746607574165
0.13497633073311005,1.70025530002237,-7.401819290490611
0.1355870833608617,1.7005132874088353,-7.41588651324462
0.13619783598861332,1.7007690115551735,-7.429480266974533
0.13680858861636494,1.7010226070632413,-7.442604958575957
0.13741934124411656,1.7012742026003203,-7.455265450710157
0.13803009387186818,1.7015239206221011,-7.4674670473442015
0.13864084649961983,1.70177187711749,-7.479215478054161
0.13925159912737145,1.702018181375653,-7.490516881140349
0.1398623517551231,1.7022629357756713,-7.501377785609448
0.14047310438287472,1.7025062355990948,-7.51180509207656
0.14108385701062634,1.7027481688655852,-7.521806052650936
0.141694609638378,1.702988816191897,-7.531388249860171
0.1423053622661296,1.7032282506742153,-7.540559574681769
0.14291611489388123,1.7034665377939602,-7.549328203745799
0.14352686752163288,1.7037037353470093,-7.557702575776217
0.1441376201493845,1.7039398933962808,-7.565691367341841
0.14474837277713615,1.704175054247537,-7.5733034679886675
0.14535912540488774,1.7044092524482473,-7.580547954824616
0.14596987803263936,1.7046425148092155,-7.587434066634821
0.146580630660391,1.704874860448724,-7.593971177600843
0.14719138328814263,1.7051063008588172,-7.600168770700648
0.14780213591589428,1.7053368399933106,-7.606036410869602
0.1484128885436459,1.705566474377087,-7.611583717997743
0.14902364117139752,1.7057951932361641,-7.616820339844485
0.14963439379914917,1.7060229786479444,-7.621755924950106
0.1502451464269008,1.7062498057111042,-7.626400095621317
0.15085589905465244,1.7064756427343977,-7.6307624210724825
0.15146665168240406,1.7067004514437338,-7.634852390799591
0.15207740431015568,1.706924187206736,-7.638679388267417
0.15268815693790733,1.7071467992740557,-7.642252664983322
0.15329890956565892,1.7073682310365432,-7.645581315039871
0.15390966219341054,1.7075884202974947,-7.648674250197088
0.1545204148211622,1.7078072995590075,-7.651540175579013
0.1551311674489138,1.7080247963215645,-7.654187566059014
0.15574192007666546,1.7082408333958385,-7.6566246434017735
0.15635267270441708,1.7084553292257714,-7.658859354230548
0.1569634253321687,1.708668198221868,-7.6608993488863835
0.15757417795992035,1.7088793511036935,-7.662751961241625
0.15818493058767197,1.7090886952504867,-7.66442418952857
0.15879568321542362,1.7092961350588327,-7.665922678240483
0.15940643584317524,1.7095015723062679,-7.667253701160147
0.16001718847092686,1.7097049065197496,-7.66842314556449
0.1606279410986785,1.7099060353478273,-7.669436497655637
0.1612386937264301,1.7101048549354287,-7.670298829260097
0.16184944635418172,1.7103012603001178,-7.671014785834531
0.16246019898193337,1.7104951457087032,-7.6715885758175055
0.163070951609685,1.710686405053092,-7.6720239613533625
0.16368170423743664,1.7108749322242425,-7.6723242504204086
0.16429245686518826,1.7110606214831554,-7.672492290381165
0.16490320949293988,1.7112433678277992,-7.672530462976431
0.16551396212069153,1.7114230673549005,-7.672440680773604
0.16612471474844315,1.7115996176155583,-7.672224385079757
0.1667354673761948,1.7117729179636616,-7.671882545322683
0.16734622000394642,1.7119428698961303,-7.671415659898556
0.16795697263169804,1.7121093773839862,-7.67082375848147
0.16856772525944969,1.7122723471933683,-7.670106405783334
0.16917847788720128,1.712431689195588,-7.669262706749906
0.16978923051495293,1.7125873166653491,-7.668291313173453
0.17039998314270455,1.712739146566384,-7.667190431696758
0.17101073577045617,1.7128870998236982,-7.6659578331782745
0.17162148839820782,1.7130311015817319,-7.664590863389847
0.17223224102595944,1.7131710814477763,-7.663086455003835
0.17284299365371106,1.7133069737200382,-7.66144114083159
0.1734537462814627,1.713438717599787,-7.659651068266144
0.17406449890921433,1.7135662573870907,-7.657712014880523
0.17467525153696598,1.7136895426597025,-7.655619405127685
0.1752860041647176,1.7138085284346956,-7.653368328086743
0.17589675679246922,1.7139231753125304,-7.650953556195377
0.17650750942022086,1.7140334496032923,-7.648369564905417
0.17711826204797246,1.7141393234348645,-7.645610553197273
0.1777290146757241,1.714240774842903,-7.642670464886174
0.17833976730347573,1.7143377878425343,-7.639543010647207
0.17895051993122735,1.7144303524817046,-7.636221690692039
0.179561272558979,1.714518464876248,-7.632699818020031
0.18017202518673062,1.7146021272267278,-7.628970542170169
0.18078277781448224,1.7146813478171967,-7.625026873399329
0.18139353044223389,1.7147561409960828,-7.620861707207449
0.1820042830699855,1.714826527139426,-7.616467849134101
0.18261503569773715,1.7148925325967816,-7.611838039748535
0.18322578832548878,1.7149541896201328,-7.606964979754378
0.1838365409532404,1.715011536276218,-7.60184135513259
0.18444729358099204,1.7150646163426904,-7.596459862246745
0.18505804620874364,1.7151134791886438,-7.5908132328305316
0.18566879883649529,1.7151581796399933,-7.584894258786162
0.1862795514642469,1.7151987778302826,-7.578695816718183
0.18689030409199853,1.71523533903755,-7.572210892129493
0.18750105671975018,1.7152679335078718,-7.565432603208527
0.1881118093475018,1.715296636266243,-7.558354224140135
0.18872256197525342,1.7153215269155142,-7.550969207871403
0.18933331460300507,1.7153426894241157,-7.5432712082668
0.18994406723075669,1.715360211903271,-7.535254101594116
0.19055481985850833,1.71537418637453,-7.5269120072764295
0.19116557248625995,1.715384708528358,-7.518239307856576
0.19177632511401158,1.7153918774746055,-7.509230668118095
0.19238707774176322,1.71539579548567,-7.499881053311384
0.19299783036951482,1.7153965677331582,-7.49018574643882
0.19360858299726647,1.7153943020188982,-7.480140364550569
0.19421933562501809,1.7153891085011237,-7.469740874012243
0.1948300882527697,1.7153810994166536,-7.458983604705027
0.19544084088052135,1.7153703887999447,-7.447865263122575
0.19605159350827298,1.7153570921997892,-7.436382944334942
0.19666234613602462,1.7153413263945423,-7.424534142789478
0.19727309876377624,1.7153232091066557,-7.412316761927568
0.19788385139152787,1.715302858717362,-7.399729122592038
0.1984946040192795,1.715280393982278,-7.386769970211925
0.19910535664703113,1.7152559337487348,-7.373438480750613
0.19971610927478275,1.7152295966756037,-7.359734265403265
0.20032686190253438,1.7152015009563475,-7.3456573740449995
0.200937614530286,1.7151717640460704,-7.33120829741788
0.20154836715803764,1.7151405023932416,-7.316387968065965
0.20215911978578927,1.7151078311768193,-7.301197760016301
0.20276987241354089,1.7150738640494132,-7.285639487217566
0.20338062504129253,1.715038712887156,-7.269715400746957
0.20399137766904415,1.71500248754689,-7.253428184797026
0.2046021302967958,1.7149652956312598,-7.236780951465232
0.20521288292454742,1.714927242262274,-7.219777234364214
0.20582363555229904,1.7148884298638898,-7.202420981075294
0.2064343881800507,1.714848957954086,-7.184716544479506
0.2070451408078023,1.7148089229469372,-7.166668672988622
0.2076558934355539,1.7147684179651108,-7.148282499714684
0.20826664606330555,1.7147275326631921,-7.129563530612482
0.20887739869105718,1.7146863530622285,-7.1105176316342105
0.20948815131880882,1.7146449613958141,-7.0911510149379735
