frequency,refractiveIndex,absorption
0.0006107526277516292,1.787606172521512,0.008886312613625323
0.0012215052555032584,1.7768528879035226,0.034382336382559775
0.0018322578832548875,1.760355618476276,0.07333189374979134
0.002443010511006517,1.73985754818176,0.12141954597754442
0.003053763138758146,1.717196666430262,0.17413888202800532
0.003664515766509775,1.694003991635988,0.2275642358109861
0.004275268394261404,1.6715347510686505,0.27877303849767016
0.004886021022013034,1.6506242062865708,0.32593444741098515
0.005496773649764663,1.631729346244417,0.36816923301009663
0.006107526277516292,1.6150135823202698,0.4053027852545662
0.006718278905267922,1.6004405323785569,0.4376075131635275
0.00732903153301955,1.5878560528272807,0.4655900966000348
0.00793978416077118,1.57704976808419,0.48984218688419684
0.008550536788522809,1.5677957756698475,0.5109496507481001
0.009161289416274438,1.5598764556709,0.5294456366804021
0.009772042044026067,1.5530944014686394,0.5457920073426595
0.010382794671777697,1.547276877218255,0.5603769717443889
0.010993547299529326,1.5422760351178293,0.5735207652752384
0.011604299927280955,1.5379670053792276,0.5854845135821398
0.012215052555032585,1.5342451216429236,0.5964796634898145
0.012825805182784214,1.5310229760085576,0.6066767347559857
0.013436557810535843,1.5282276487947837,0.6162129119147803
0.014047310438287471,1.525798258033382,0.6251983879244084
0.0146580630660391,1.5236838664272931,0.6337215514189721
0.015268815693790731,1.521841730648857,0.6418531764500088
0.01587956832154236,1.5202358552803112,0.6496497848380344
0.01649032094929399,1.5188358070709715,0.6571563376759451
0.017101073577045618,1.5176157463628681,0.6644083900899487
0.01771182620479725,1.5165536370806927,0.671433819733526
0.018322578832548876,1.515630602281863,0.6782542179729185
0.018933331460300507,1.5148303977926343,0.6848860144368226
0.019544084088052135,1.5141389814270232,0.6913413906435455
0.020154836715803762,1.5135441595372934,0.6976290264480449
0.020765589343555393,1.513035296177863,0.7037547135998397
0.02137634197130702,1.5126030730490265,0.7097218632946256
0.021987094599058652,1.5122392907163604,0.7155319288215348
0.02259784722681028,1.5119367034705034,0.7211847599019723
0.02320859985456191,1.511688881686014,0.7266789018044206
0.023819352482313542,1.5114900967301872,0.7320118495790009
0.02443010511006517,1.511335224423979,0.7371802656119918
0.025040857737816797,1.5112196638166349,0.742180167020352
0.025651610365568428,1.511139268643021,0.7470070880835997
0.026262362993320056,1.5110902893192744,0.7516562218682376
0.026873115621071687,1.511069323723228,0.7561225443737012
0.027483868248823314,1.511073275320888,0.7604009238733723
0.028094620876574942,1.5110993174544443,0.7644862176018948
0.028705373504326573,1.5111448628132675,0.7683733575229006
0.0293161261320782,1.5112075372766998,0.7720574265772452
0.029926878759829835,1.5112851574538757,0.7755337265439313
0.030537631387581463,1.5113757113574096,0.7787978384308527
0.03114838401533309,1.5114773417393095,0.7818456761396141
0.03175913664308472,1.5115883316928855,0.7846735340097356
0.03236988927083635,1.511707092186618,0.7872781287368187
0.03298064189858798,1.5118321512475839,0.7896566360697681
0.03359139452633961,1.511962144554886,0.7918067226221148
0.034202147154091235,1.5120958072393358,0.7937265730765309
0.03481289978184286,1.5122319667156081,0.795414913018314
0.0354236524095945,1.5123695363982053,0.796871027600187
0.036034405037346125,1.5125075101738301,0.7980947762158046
0.03664515766509775,1.5126449575206902,0.799086603340788
0.03725591029284938,1.512781019180508,0.799847545687757
0.037866662920601014,1.5129149033019738,0.8003792358131863
0.038477415548352635,1.5130458819855297,0.8006839023098373
0.03908816817610427,1.513173288168867,0.8007643667165643
0.039698920803855904,1.5132965128007714,0.8006240372782253
0.040309673431607525,1.5134150022580368,0.8002668996908983
0.04092042605935916,1.513528255966343,0.7996975049711672
0.04153117868711079,1.5136358241913657,0.7989209545933821
0.04214193131486242,1.5137373059710717,0.7979428830434094
0.04275268394261404,1.5138323471642818,0.7967694379434501
0.04336343657036568,1.5139206385941573,0.7954072579075604
0.043974189198117304,1.51400191426848,0.7938634482928293
0.04458494182586893,1.5140759496613863,0.79214555501609
0.04519569445362056,1.514142560043678,0.7902615366099517
0.045806447081372194,1.5142015988510293,0.7882197346959116
0.04641719970912382,1.5142529560813511,0.7860288430543777
0.04702795233687545,1.5142965567142483,0.783697875473815
0.047638704964627084,1.5143323591470426,0.7812361325618364
0.048249457592378704,1.5143603536431363,0.7786531677009016
0.04886021022013034,1.514380560789652,0.7759587523304199
0.049470962847881966,1.5143930299623094,0.7731628407349257
0.050081715475633594,1.514397837796355,0.7702755345149812
0.05069246810338522,1.5143950866631481,0.7673070469136667
0.051303220731136856,1.514384903152618,0.7642676671666483
0.05191397335888848,1.5143674365623911,0.7611677250383726
0.05252472598664011,1.514342857394805,0.7580175557006505
0.053135478614391746,1.5143113558634294,0.7548274651026843
0.05374623124214337,1.514273140410981,0.7516076959746454
0.054356983869895,1.5142284362407803,0.7483683945980245
0.05496773649764663,1.5141774838640258,0.7451195784684755
0.05557848912539826,1.5141205376653135,0.7418711049671387
0.056189241753149884,1.514057864488852,0.738632641148394
0.05679999438090152,1.513989742247878,0.7354136347418616
0.057410747008653146,1.5139164585597311,0.7322232864577755
0.05802149963640477,1.5138383094090073,0.729070523675561
0.0586322522641564,1.5137555978411286,0.7259639755857982
0.059243004891908035,1.5136686326885593,0.7229119498470656
0.05985375751965967,1.513577727331772,0.7199224108100779
0.06046451014741129,1.5134831984969372,0.7170029593527528
0.061075262775162925,1.513385365092141,0.7141608143615656
0.06168601540291455,1.513284547083791,0.7114027958863174
0.06229676803066618,1.5131810644146866,0.7087353099878423
0.0629075206584178,1.5130752359650674,0.7061643352905598
0.06351827328616944,1.512967378557778,0.7036954112450637
0.06412902591392107,1.512857806008517,0.701333628099146
0.0647397785416727,1.5127468282219596,0.6990836185695373
0.06535053116942433,1.5126347503343927,0.6969495512009437
0.06596128379717596,1.5125218719033264,0.6949351253935302
0.0665720364249276,1.5124084861444007,0.6930435680751215
0.06718278905267921,1.512294879215763,0.6912776319897155
0.06779354168043085,1.5121813295499469,0.6896395955699341
0.06840429430818247,1.5120681072331508,0.6881312643570598
0.06901504693593409,1.511955473431715,0.6867539739287942
0.06962579956368573,1.5118436798654526,0.6855085942920138
0.07023655219143736,1.5117329683274172,0.684395535694435
0.070847304819189,1.511623570249575,0.6834147558071353
0.07145805744694061,1.5115157063137774,0.6825657682270102
0.07206881007469225,1.5114095861073402,0.6818476522465304
0.07267956270244387,1.5113054078224841,0.6812590638358998
0.0732903153301955,1.5112033579988011,0.6807982477815236
0.07390106795794714,1.5111036113078915,0.6804630509225222
0.07451182058569876,1.51100633037923,0.680250936426193
0.0751225732134504,1.5109116656663018,0.6801589990415853
0.07573332584120203,1.510819755351997,0.680183981269627
0.07634407846895366,1.5107307252922242,0.6803222903867798
0.07695483109670527,1.5106446889966585,0.6805700162584256
0.0775655837244569,1.5105617476455317,0.6809229498773334
0.07817633635220854,1.5104819901413278,0.6813766025616178
0.07878708897996017,1.5104054931942328,0.6819262257458779
0.07939784160771181,1.5103323214401627,0.6825668312985365
0.08000859423546343,1.5102625275901687,0.6832932122978109
0.08061934686321505,1.5101961526100045,0.6840999641981695
0.08123009949096668,1.5101332259286182,0.6849815063185977
0.08184085211871832,1.5100737656743022,0.6859321035838101
0.08245160474646994,1.5100177789372282,0.6869458884490193
0.08306235737422157,1.5099652620570696,0.6880168829388658
0.08367311000197321,1.5099162009343774,0.6891390207310052
0.08428386262972484,1.509870571364384,0.6903061692148063
0.08489461525747646,1.5098283393918621,0.6915121514560217
0.08550536788522808,1.509789461685653,0.6927507679983875
0.08611612051297972,1.5097538859314679,0.694015818433953
0.08672687314073135,1.5097215512415252,0.6953011226743055
0.08733762576848299,1.5096923885795812,0.696600541856107
0.08794837839623461,1.509666321199887,0.6979079988151307
0.08855913102398623,1.5096432650985872,0.6992174980646866
0.08916988365173786,1.5096231294760507,0.7005231452155557
0.0897806362794895,1.5096058172086266,0.7018191657766643
0.09039138890724112,1.5095912253282822,0.703099923277475
0.09100214153499275,1.5095792455085928,0.7043599366556894
0.09161289416274439,1.5095697645555262,0.7055938968562031
0.09222364679049602,1.5095626649014753,0.7067966825901838
0.09283439941824764,1.5095578251009814,0.7079633752060713
0.09344515204599926,1.5095551203266087,0.7090892726278801
0.0940559046737509,1.5095544228634226,0.7101699023193788
0.09466665730150253,1.509555602600551,0.7112010332368184
0.09527740992925417,1.5095585275183245,0.7121786867366801
0.09588816255700579,1.5095630641695106,0.7130991464091906
0.09649891518475741,1.5095690781531934,0.7139589668126738
0.09710966781250904,1.509576434579881,0.7147549810883835
0.09772042044026068,1.5095849985264675,0.7154843074400771
0.09833117306801231,1.5095946354797198,0.7161443544673751
0.09894192569576393,1.5096052117670207,0.716732825346828
0.09955267832351557,1.5096165949731435,0.7172477208594236
0.10016343095126719,1.5096286543419164,0.7176873412683978
0.10077418357901882,1.5096412611616814,0.7180502870557854
0.10138493620677044,1.5096542891335514,0.7183354585314033
0.10199568883452208,1.509667614721523,0.7185420543324886
0.10260644146227371,1.5096811174836053,0.7186695688370379
0.10321719409002535,1.5096946803831972,0.7187177885184127
0.10382794671777695,1.5097081900800442,0.7186867872731691
0.10443869934552859,1.5097215372001922,0.7185769207583154
0.10504945197328022,1.5097346165844532,0.7183888197782681
0.10566020460103186,1.509747327514995,0.7181233827651198
0.10627095722878349,1.5097595739197553,0.7177817673999712
0.10688170985653511,1.509771264554492,0.7173653814255284
0.10749246248428675,1.509782313162363,0.7168758727036916
0.10810321511203837,1.5097926386110425,0.7163151185737683
0.10871396773979,1.5098021650074511,0.7156852145697546
0.10932472036754162,1.509810821790298,0.7149884625565051
0.10993547299529326,1.5098185438007006,0.7142273583463747
0.11054622562304489,1.5098252713312463,0.7134045788589775
0.11115697825079653,1.5098309501539369,0.7125229688874204
0.11176773087854816,1.5098355315275458,0.7115855275349584
0.11237848350629977,1.5098389721849783,0.7105953943858353
0.1129892361340514,1.5098412343013083,0.7095558354741016
0.11359998876180304,1.5098422854432194,0.7084702291132273
0.11421074138955467,1.5098420985006464,0.7073420516487623
0.11482149401730629,1.5098406516014593,0.7061748631947136
0.11543224664505793,1.509837928010082,0.7049722934130775
0.11604299927280955,1.5098339160109802,0.7037380273938076
0.11665375190056118,1.509828608777988,0.7024757916908471
0.1172645045283128,1.5098220042304749,0.7011893405671272
0.11787525715606444,1.5098141048773668,0.6998824424994198
0.11848600978381607,1.509804917650073,0.6985588669905798
0.1190967624115677,1.5097944537253596,0.6972223717346938
0.11970751503931934,1.5097827283392324,0.6958766901768577
0.12031826766707095,1.5097697605928853,0.6945255195067629
0.12092902029482258,1.509755573251764,0.6931725091218017
0.12153977292257422,1.5097401925387937,0.6918212495922142
0.12215052555032585,1.5097236479227918,0.69047526215744
0.12276127817807747,1.5097059719030774,0.6891379887796588
0.1233720308058291,1.5096871997912638,0.6878127827767538
0.12398278343358073,1.5096673694911884,0.6865029000543063
0.12459353606133236,1.509646521277915,0.6852114909520407
0.125204288689084,1.5096246975766898,0.683941592717805
0.1258150413168356,1.5096019427427227,0.6826961226181097
0.12642579394458725,1.509578302842603,0.6814778716920492
0.12703654657233887,1.5095538254381267,0.6802894991515557
0.12764729920009052,1.5095285593732763,0.6791335274287023
0.12825805182784214,1.509502554565039,0.6780123378676421
0.12886880445559376,1.5094758617987043,0.6769281670561906
0.1294795570833454,1.5094485325282503,0.6758831037895437
0.13009030971109703,1.5094206186823598,0.6748790866562194
0.13070106233884865,1.5093921724765769,0.673917902234159
0.13131181496660027,1.5093632462320599,0.673001183882506
0.13192256759435192,1.5093338922013446,0.672130411113175
0.13253332022210354,1.5093041624014778,0.6713069095239379
0.1331440728498552,1.5092741084548422,0.6705318512735189
0.13375482547760678,1.5092437814379502,0.6698062560775032
0.13436557810535843,1.50921323173843,0.669130992702635
0.13497633073311005,1.5091825089203947,0.6685067809357331
0.1355870833608617,1.509151661598344,0.667934194002546
0.13619783598861332,1.5091207373196944,0.6674136614110103
0.13680858861636494,1.5090897824560157,0.6669454721922845
0.13741934124411656,1.5090588421029933,0.6665297785128754
0.13803009387186818,1.5090279599891203,0.6661665996300766
0.13864084649961983,1.508997178393069,0.6658558261630702
0.13925159912737145,1.5089665380696826,0.6655972246514843
0.1398623517551231,1.5089360781844716,0.6653904423732651
0.14047310438287472,1.5089058362564947,0.6652350123937173
0.14108385701062634,1.5088758481094608,0.665130358817553
0.141694609638378,1.5088461478308732,0.6650758022161385
0.1423053622661296,1.5088167677390052,0.6650705652024722
0.14291611489388123,1.5087877383574877,0.6651137781266605
0.14352686752163288,1.5087590883972555,0.6652044848654324
0.1441376201493845,1.50873084474559,0.6653416486795174
0.14474837277713615,1.5087030324619806,0.6655241581137952
0.14535912540488774,1.508675674780504,0.6657508329153883
0.14596987803263936,1.5086487931184207,0.6660204299461293
0.146580630660391,1.508622407090666,0.6663316490664744
0.14719138328814263,1.5085965345299064,0.666683138968905
0.14780213591589428,1.5085711915118314,0.6670735029399799
0.1484128885436459,1.5085463923853317,0.667501304531223
0.14902364117139752,1.5085221498072234,0.6679650731199311
0.14963439379914917,1.5084984747811654,0.6684633093424861
0.1502451464269008,1.508475376700417,0.6689944903836339
0.15085589905465244,1.5084528633940864,0.6695570751065973
0.15146665168240406,1.5084309411765175,0.6701495090099726
0.15207740431015568,1.508409614899468,0.6707702289988229
0.15268815693790733,1.5083888880067284,0.6714176679583345
0.15329890956565892,1.5083687625908484,0.6720902591202043
0.15390966219341054,1.5083492394516287,0.6727864402125396
0.1545204148211622,1.508330318156056,0.6735046573860922
0.1551311674489138,1.5083119970993555,0.6742433689103382
0.15574192007666546,1.5082942735668592,0.6750010486344594
0.15635267270441708,1.5082771437963753,0.6757761892097234
0.1569634253321687,1.508260603040783,0.6765673050705734
0.15757417795992035,1.5082446456305638,0.6773729351734618
0.15818493058767197,1.5082292650360074,0.6781916454932319
0.15879568321542362,1.5082144539288413,0.6790220312784839
0.15940643584317524,1.5082002042430398,0.6798627190679231
0.16001718847092686,1.508186507234591,0.6807123684714603
0.1606279410986785,1.5081733535400117,0.6815696737202407
0.1612386937264301,1.5081607332334155,0.682433364991256
0.16184944635418172,1.5081486358819531,0.6833022095129124
0.16246019898193337,1.5081370505994638,0.6841750124588398
0.163070951609685,1.5081259660981905,0.6850506176381109
0.16368170423743664,1.5081153707384287,0.6859279079907974
0.16429245686518826,1.5081052525759924,0.6868058058984675
0.16490320949293988,1.5080955994074026,0.6876832733198931
0.16551396212069153,1.5080863988127147,0.6885593117627345
0.16612471474844315,1.5080776381959187,0.6894329621025668
0.1667354673761948,1.5080693048228673,0.6903033042608964
0.16734622000394642,1.5080613858566911,0.6911694567543687
0.16795697263169804,1.508053868390691,0.6920305761272543
0.16856772525944969,1.5080467394786954,0.6928858562800146
0.16917847788720128,1.5080399861629026,0.6937345277063228
0.16978923051495293,1.5080335954992257,0.6945758566513551
0.17039998314270455,1.5080275545801842,0.6954091442039554
0.17101073577045617,1.5080218505553886,0.6962337253351414
0.17162148839820782,1.5080164706496846,0.6970489678953162
0.17223224102595944,1.5080114021790303,0.69785427158233
0.17284299365371106,1.5080066325641912,0.6986490668919908
0.1734537462814627,1.5080021493423472,0.6994328140626497
0.17406449890921433,1.5079979401767158,0.7002050020245308
0.17467525153696598,1.5079939928643022,0.7009651473644711
0.1752860041647176,1.507990295341896,0.7017127933158219
0.17589675679246922,1.5079868356904367,0.7024475087828322
0.17650750942022086,1.507983602137881,0.7031688874080754
0.17711826204797246,1.5079805830607023,0.703876546691033
0.1777290146757241,1.5079777669841636,0.7045701271647649
0.17833976730347573,1.5079751425815013,0.7052492916373946
0.17895051993122735,1.5079726986721604,0.7059137245038353
0.179561272558979,1.507970424219227,0.7065631311327546
0.18017202518673062,1.507968308326194,0.7071972373327714
0.18078277781448224,1.5079663402332066,0.7078157889009872
0.18139353044223389,1.5079645093129186,0.7084185512563603
0.1820042830699855,1.507962805066103,0.7090053091592148
0.18261503569773715,1.5079612171171413,0.7095758665177733
0.18322578832548878,1.5079597352095249,0.7101300462813518
0.1838365409532404,1.507958349201486,0.7106676904193204
0.18444729358099204,1.5079570490618786,0.7111886599840466
0.18505804620874364,1.5079558248664153,0.7116928352552064
0.18566879883649529,1.5079546667943688,0.7121801159622315
0.1862795514642469,1.5079535651258273,0.7126504215807509
0.18689030409199853,1.5079525102395968,0.7131036916983934
0.18750105671975018,1.5079514926118276,0.7135398864446274
0.1881118093475018,1.507950502815435,0.7139589869785422
0.18872256197525342,1.5079495315203795,0.7143609960282219
0.18933331460300507,1.5079485694948527,0.7147459384746516
0.18994406723075669,1.5079476076074214,0.7151138619725219
0.19055481985850833,1.5079466368301533,0.7154648376003795
0.19116557248625995,1.5079456482427562,0.7157989605315678
0.19177632511401158,1.5079446330377448,0.7161163507177203
0.19238707774176322,1.507943582526633,0.716417153575903
0.19299783036951482,1.507942488147157,0.7167015406705309
0.19360858299726647,1.50794134147151,0.7169697103811041
0.19421933562501809,1.5079401342155654,0.7172218885466242
0.1948300882527697,1.5079388582490612,0.7174583290775908
0.19544084088052135,1.507937505606701,0.7176793145267485
0.19605159350827298,1.5079360685001273,0.7178851566094391
0.19666234613602462,1.5079345393307062,0.7180761966651643
0.19727309876377624,1.5079329107030681,0.718252806051652
0.19788385139152787,1.507931175439326,0.718415386463522
0.1984946040192795,1.5079293265938989,0.7185643701675033
0.19910535664703113,1.5079273574688568,0.718700220146964
0.19971610927478275,1.5079252616297019,0.7188234301487839
0.20032686190253438,1.5079230329214885,0.7189345246260417
0.200937614530286,1.507920665485189,0.7190340585706169
0.20154836715803764,1.5079181537742041,0.7191226172304156
0.20215911978578927,1.5079154925709135,0.7192008157064517
0.20276987241354089,1.5079126770031634,0.7192692984256339
0.20338062504129253,1.5079097025605803,0.7193287384860093
0.20399137766904415,1.507906565110606,0.7193798368716013
0.2046021302967958,1.507903260914144,0.7194233215350062
0.20521288292454742,1.507899786640709,0.7194599463463857
0.20582363555229904,1.5078961393829704,0.7194904899084851
0.2064343881800507,1.507892316670589,0.7195157542378992
0.2070451408078023,1.507888316483236,0.7195365633138099
0.2076558934355539,1.5078841372626994,0.7195537614957603
0.20826664606330555,1.5078797779239792,0.719568211813393
0.20887739869105718,1.5078752378652724,0.7195807941313913
0.20948815131880882,1.5078705169767679,0.7195924031937122
0.21009890394656044,1.5078656156481582,0.7196039465522089
0.21070965657431207,1.5078605347747955,0.7196163423850681
0.2113204092020637,1.5078552757624148,0.719630517211503
