frequency,refractiveIndex,absorption
0.0006107526277516292,1.8258543584886644,-8.13817717439342e-05
0.0012215052555032584,1.8258716536622919,-0.0003257404575006552
0.0018322578832548875,1.8259004376679935,-0.0007337153726918416
0.002443010511006517,1.8259406486599778,-0.001306369390636339
0.003053763138758146,1.8259922002136515,-0.0020451849691047338
0.003664515766509775,1.826054981485053,-0.0029520585977775553
0.004275268394261404,1.8261288574158385,-0.004029293676958382
0.004886021022013034,1.826213668983728,-0.005279591840928505
0.005496773649764663,1.8263092334983935,-0.0067060427424411265
0.006107526277516292,1.8264153449426688,-0.008312112318039995
0.006718278905267922,1.826531774359025,-0.010101629557106001
0.00732903153301955,1.8266582702811431,-0.012078771801018304
0.00793978416077118,1.8267945592104515,-0.014248048602090729
0.008550536788522809,1.826940346137403,-0.01661428417575064
0.009161289416274438,1.8270953151072045,-0.019182598482846897
0.009772042044026067,1.827259129829768,-0.021958386983047543
0.010382794671777697,1.8274314343333675,-0.02494729910392893
0.010993547299529326,1.8276118536616914,-0.028155215474598195
0.011604299927280955,1.8277999946136403,-0.03158822397664354
0.012215052555032585,1.8279954465253,-0.03525259466952588
0.012825805182784214,1.8281977820933784,-0.039154753651707466
0.013436557810535843,1.828406558239186,-0.043301255923382256
0.014047310438287471,1.8286213170123502,-0.04769875732064161
0.0146580630660391,1.8288415865330558,-0.05235398559601152
0.015268815693790731,1.8290668819717144,-0.05727371072397765
0.01587956832154236,1.829296706564661,-0.06246471451515551
0.01649032094929399,1.829530552664439,-0.06793375962674335
0.017101073577045618,1.8297679028230125,-0.07368755806135503
0.01771182620479725,1.8300082309061234,-0.07973273925044651
0.018322578832548876,1.830251003236908,-0.08607581782253933
0.018933331460300507,1.8304956797665308,-0.09272316116039153
0.019544084088052135,1.8307417152697458,-0.09968095685468138
0.020154836715803762,1.8309885605627998,-0.10695518016532886
0.020765589343555393,1.8312356637411857,-0.11455156160436761
0.02137634197130702,1.8314824714343938,-0.1224755547573342
0.021987094599058652,1.8317284300748664,-0.13073230446195883
0.02259784722681028,1.8319729871779342,-0.13932661546520975
0.02320859985456191,1.8322155926296826,-0.14826292168108782
0.023819352482313542,1.8324556999792434,-0.1575452561721525
0.02443010511006517,1.8326927677321267,-0.16717722197889726
0.025040857737816797,1.8329262606409393,-0.17716196391951122
0.025651610365568428,1.8331556509898033,-0.18750214148366454
0.026262362993320056,1.8333804198686308,-0.19819990294079737
0.026873115621071687,1.8336000584334222,-0.20925686078213843
0.027483868248823314,1.8338140691486158,-0.2206740686130128
0.028094620876574942,1.8340219670075137,-0.23245199960839258
0.028705373504326573,1.834223280726723,-0.24459052664037256
0.0293161261320782,1.8344175539107272,-0.2570889041818739
0.029926878759829835,1.8346043461824144,-0.2699457520850972
0.030537631387581463,1.8347832342757417,-0.28315904132754893
0.03114838401533309,1.8349538130865843,-0.29672608181099036
0.03175913664308472,1.835115696677956,-0.3106435122920839
0.03236988927083635,1.8352685192358598,-0.32490729251514655
0.03298064189858798,1.8354119359722672,-0.3395126976085665
0.03359139452633961,1.8355456239717056,-0.35445431479813594
0.034202147154091235,1.8356692829782513,-0.36972604248044055
0.03481289978184286,1.8357826361198237,-0.3853210916896376
0.0354236524095945,1.8358854305669847,-0.40123198998085313
0.036034405037346125,1.8359774381235356,-0.41745058774273647
0.03664515766509775,1.836058455746621,-0.4339680669409518
0.03725591029284938,1.836128305994221,-0.4507749522831018
0.037866662920601014,1.8361868373981665,-0.4678611247854192
0.038477415548352635,1.8362339247612005,-0.4852158377092611
0.03908816817610427,1.8362694693768848,-0.5028277348256077
0.039698920803855904,1.8362933991713557,-0.520684870954472
0.040309673431607525,1.8363056687664725,-0.5387747347149094
0.04092042605935916,1.8363062594640047,-0.5570842734123916
0.04153117868711079,1.8362951791509894,-0.5755999199788642
0.04214193131486242,1.8362724621266449,-0.5943076218721335
0.04275268394261404,1.836238168851594,-0.6131928718319588
0.04336343657036568,1.8361923856203861,-0.6322407403817301
0.043974189198117304,1.8361352241588298,-0.6514359099562714
0.04458494182586893,1.8360668211476452,-0.6707627105301721
0.04519569445362056,1.8359873376745475,-0.6902051566131338
0.045806447081372194,1.8358969586169616,-0.7097469854740557
0.04641719970912382,1.83579589195793,-0.7293716964496961
0.04702795233687545,1.8356843680379638,-0.7490625911905227
0.047638704964627084,1.8355626387459005,-0.7688028146916931
0.048249457592378704,1.835430976651971,-0.7885753969553932
0.04886021022013034,1.8352896740865534,-0.8083632951283733
0.049470962847881966,1.8351390421681935,-0.828149435957657
0.050081715475633594,1.8349794097846568,-0.8479167584075685
0.05069246810338522,1.8348111225309773,-0.8676482562804996
0.051303220731136856,1.8346345416083953,-0.8873270206873426
0.05191397335888848,1.8344500426884243,-0.9069362822127358
0.05252472598664011,1.8342580147461125,-0.9264594526255453
0.053135478614391746,1.8340588588667246,-0.9458801659869049
0.05374623124214337,1.8338529870301385,-0.9651823190124496
0.054356983869895,1.8336408208771062,-0.9843501105501054
0.05496773649764663,1.833422790461655,-1.0033680800400633
0.05557848912539826,1.8331993329937637,-1.022221144828187
0.056189241753149884,1.832970891576517,-1.040894636211206
0.05679999438090152,1.8327379139416358,-1.0593743340983495
0.057410747008653146,1.8325008511875487,-1.0776465001792337
0.05802149963640477,1.832260156523653,-1.0956979094970185
0.0586322522641564,1.832016284024709,-1.1135158803309497
0.059243004891908035,1.8317696873987996,-1.1310883023015839
0.05985375751965967,1.8315208187724963,-1.1484036626176481
0.06046451014741129,1.8312701274964442,-1.165451070392776
0.061075262775162925,1.8310180589746101,-1.182220278966507
0.06168601540291455,1.8307650535201827,-1.198701706172966
0.06229676803066618,1.8305115452410277,-1.214886452506175
0.0629075206584178,1.830257960957296,-1.2307663171415923
0.06351827328616944,1.8300047191537856,-1.2463338117774674
0.06412902591392107,1.8297522289693708,-1.261582172269371
0.0647397785416727,1.8295008892256397,-1.2765053680377572
0.06535053116942433,1.8292510874967853,-1.2910981092347198
0.06596128379717596,1.8290031992225557,-1.3053558516642496
0.0665720364249276,1.828757586865906,-1.319274799456355
0.06718278905267921,1.828514599116914,-1.332851905501229
0.06779354168043085,1.8282745701441678,-1.3460848696579213
0.06840429430818247,1.8280378188949515,-1.358972134755694
0.06901504693593409,1.8278046484451487,-1.371512880414054
0.06962579956368573,1.8275753453997328,-1.3837070147124584
0.07023655219143736,1.8273501793446374,-1.3955551637461
0.070847304819189,1.8271294023505433,-1.4070586591096368
0.07145805744694061,1.8269132485290405,-1.4182195233560002
0.07206881007469225,1.8267019336414976,-1.4290404534824848
0.07267956270244387,1.8264956547608169,-1.4395248025009035
0.0732903153301955,1.826294589986187,-1.449676559152795
0.07390106795794714,1.826098898210725,-1.4595003258365682
0.07451182058569876,1.8259087189419418,-1.4690012948150915
0.0751225732134504,1.8257241721746815,-1.4781852227800163
0.07573332584120203,1.825545358316223,-1.487058403849714
0.07634407846895366,1.8253723581630514,-1.4956276410828235
0.07695483109670527,1.8252052329287605,-1.5039002165937914
0.0775655837244569,1.8250440243223522,-1.5118838603594873
0.07817633635220854,1.824888754676282,-1.5195867178083269
0.07878708897996017,1.824739427123302,-1.5270173162892848
0.07939784160771181,1.824596025821239,-1.534184530517761
0.08000859423546343,1.8244585162246347,-1.541097547101168
0.08061934686321505,1.8243268454021855,-1.5477658282472655
0.08123009949096668,1.8242009423987384,-1.554199074762969
0.08184085211871832,1.8240807186406143,-1.5604071884514266
0.08245160474646994,1.8239660683828747,-1.5664002340190044
0.08306235737422157,1.8238568691971049,-1.5721884006049747
0.08367311000197321,1.8237529824981829,-1.577781963047567
0.08428386262972484,1.8236542541084815,-1.5831912430031045
0.08489461525747646,1.823560514857763,-1.5884265700340177
0.08550536788522808,1.8234715812171005,-1.593498242783894
0.08611612051297972,1.823387255964938,-1.5984164903576048
0.08672687314073135,1.823307328883449,-1.6031914340244569
0.08733762576848299,1.8232315774832066,-1.6078330493620892
0.08794837839623461,1.823159767754137,-1.612351128960349
0.08855913102398623,1.823091654940685,-1.6167552457993661
0.08916988365173786,1.8230269843390337,-1.6210547174193999
0.0897806362794895,1.822965492114146,-1.6252585709953202
0.09039138890724112,1.8229069061344123,-1.6293755094273956
0.09100214153499275,1.822850946821534,-1.6334138785591057
0.09161289416274439,1.8227973280133434,-1.6373816356265607
0.09222364679049602,1.8227457578371569,-1.6412863190445004
0.09283439941824764,1.8226959395911662,-1.6451350196289465
0.09344515204599926,1.8226475726315272,-1.6489343533496617
0.0940559046737509,1.8226003532625774,-1.6526904357070082
0.09466665730150253,1.8225539756277391,-1.6564088578170164
0.09527740992925417,1.8225081325986063,-1.6600946642867604
0.09588816255700579,1.8224625166597093,-1.6637523329557944
0.09649891518475741,1.822416820786495,-1.6673857565722792
0.09710966781250904,1.822370739314021,-1.6709982264680618
0.09772042044026068,1.8223239687939818,-1.6745924182875218
0.09833117306801231,1.8222762088375797,-1.6781703798219652
0.09894192569576393,1.8222271629419613,-1.6817335209895825
0.09955267832351557,1.8221765392978175,-1.6852826059978085
0.10016343095126719,1.8221240515759887,-1.68881774771377
0.10077418357901882,1.822069419690798,-1.6923384042628773
0.10138493620677044,1.822012370538089,-1.6958433778672029
0.10199568883452208,1.8219526387058662,-1.699330815925922
0.10260644146227371,1.8218899671556779,-1.7027982143342006
0.10321719409002535,1.821824107872866,-1.7062424230268172
0.10382794671777695,1.8217548224839741,-1.7096596537254973
0.10443869934552859,1.8216818828397323,-1.713045489860481
0.10504945197328022,1.8216050715620702,-1.7163948986305453
0.10566020460103186,1.821524182553877,-1.71970224515478
0.10627095722878349,1.8214390214702363,-1.7229613086640192
0.10688170985653511,1.8213494061500162,-1.726165300673644
0.10749246248428675,1.8212551670069517,-1.7293068850670859
0.10810321511203837,1.8211561473793183,-1.7323782000205303
0.10871396773979,1.8210522038375887,-1.7353708816838898
0.10932472036754162,1.8209432064495403,-1.7382760895352105
0.10993547299529326,1.8208290390024588,-1.7410845333131182
0.11054622562304489,1.8207095991821949,-1.7437865014320029
0.11115697825079653,1.8205847987090396,-1.7463718907752468
0.11176773087854816,1.8204545634304627,-1.748830237761107
0.11237848350629977,1.820318833370966,-1.7511507505691317
0.1129892361340514,1.8201775627393875,-1.7533223424131439
0.11359998876180304,1.8200307198941823,-1.755333665743434
0.11421074138955467,1.8198782872673087,-1.757173147257577
0.11482149401730629,1.8197202612474876,-1.7588290235994617
0.11543224664505793,1.8195566520237463,-1.7602893776209956
0.11604299927280955,1.819387483390229,-1.761542175084958
0.11665375190056118,1.8192127925134345,-1.7625753016825625
0.1172645045283128,1.8190326296630817,-1.7633766002422535
0.11787525715606444,1.8188470579079972,-1.7639339080039942
0.11848600978381607,1.8186561527783756,-1.7642350938395877
0.1190967624115677,1.8184600018959791,-1.7642680952937808
0.11970751503931934,1.818258704573873,-1.7640209553292474
0.12031826766707095,1.8180523713872978,-1.7634818586569656
0.12092902029482258,1.817841123717507,-1.7626391675379682
0.12153977292257422,1.8176250932702347,-1.7614814569455355
0.12215052555032585,1.8174044215707132,-1.7599975489781796
0.12276127817807747,1.8171792594370413,-1.7581765464215773
0.1233720308058291,1.8169497664338512,-1.75600786535659
0.12398278343358073,1.8167161103081517,-1.753481266719991
0.12459353606133236,1.816478466409317,-1.7505868867238141
0.125204288689084,1.8162370170951405,-1.7473152660490097
0.1258150413168356,1.815991951125942,-1.7436573777295303
0.12642579394458725,1.8157434630486256,-1.7396046536511345
0.12703654657233887,1.8154917525726633,-1.735149009593385
0.12764729920009052,1.8152370239399027,-1.7302828687476717
0.12825805182784214,1.8149794852901093,-1.72499918365067
0.12886880445559376,1.814719348024104,-1.7192914564779032
0.1294795570833454,1.8144568261663443,-1.7131537576475564
0.13009030971109703,1.814192135728744,-1.7065807426887702
0.13070106233884865,1.8139254940775178,-1.699567667336363
0.13131181496660027,1.8136571193047162,-1.692110400819155
0.13192256759435192,1.8133872296062146,-1.6842054373109265
0.13253332022210354,1.8131160426676673,-1.6758499055254505
0.1331440728498552,1.8128437750600912,-1.667041576434251
0.13375482547760678,1.8125706416465293,-1.6577788690983748
0.13436557810535843,1.8122968550012866,-1.648060854605303
0.13497633073311005,1.8120226248430986,-1.6378872581106145
0.1355870833608617,1.8117481574836183,-1.6272584589878814
0.13619783598861332,1.8114736552924149,-1.6161754890949387
0.13680858861636494,1.8111993161797837,-1.6046400291703742
0.13741934124411656,1.810925333098422,-1.5926544033792815
0.13803009387186818,1.8106518935651157,-1.5802215720292734
0.13864084649961983,1.8103791792034076,-1.5673451224870227
0.13925159912737145,1.8101073653081932,-1.5540292583258906
0.1398623517551231,1.8098366204331402,-1.540278786741949
0.14047310438287472,1.809567106001728,-1.5260991042776795
0.14108385701062634,1.8092989759426406,-1.5114961809017045
0.141694609638378,1.8090323763501934,-1.4964765424903015
0.1423053622661296,1.8087674451704019,-1.4810472517657158
0.14291611489388123,1.8085043119132322,-1.4652158877468837
0.14352686752163288,1.8082430973914818,-1.4489905237746408
0.1441376201493845,1.8079839134867202,-1.4323797041738733
0.14474837277713615,1.8077268629425969,-1.4153924196219363
0.14535912540488774,1.8074720391858157,-1.398038081291856
0.14596987803263936,1.8072195261749142,-1.38032649384775
0.146580630660391,1.8069693982770798,-1.3622678273643989
0.14719138328814263,1.806721720172945,-1.3438725882570945
0.14780213591589428,1.8064765467894535,-1.3251515892987513
0.1484128885436459,1.806233923260693,-1.3061159188125762
0.14902364117139752,1.8059938849165507,-1.286776909126415
0.14963439379914917,1.8057564572990086,-1.2671461043787644
0.1502451464269008,1.805521656205798,-1.2472352277677587
0.15085589905465244,1.805289487761085,-1.227056148336682
0.15146665168240406,1.80505994851281,-1.2066208473897224
0.15207740431015568,1.8048330255561744,-1.185941384636299
0.15268815693790733,1.8046086966828097,-1.1650298641585353
0.15329890956565892,1.8043869305549878,-1.1438984003017167
0.15390966219341054,1.8041676869042835,-1.1225590835860477
0.1545204148211622,1.8039509167539192,-1.1010239467375018
0.1551311674489138,1.8037365626640907,-1.0793049309392773
0.15574192007666546,1.8035245589994007,-1.0574138523995968
0.15635267270441708,1.803314832217561,-1.0353623693363134
0.1569634253321687,1.8031073011783965,-1.0131619494757025
0.15757417795992035,1.8029018774722085,-0.9908238381605057
0.15818493058767197,1.8026984657664196,-0.9683590271641123
0.15879568321542362,1.8024969641694715,-0.9457782243021435
0.15940643584317524,1.8022972646107964,-0.9230918239358525
0.16001718847092686,1.8020992532357487,-0.9003098784525957
0.1606279410986785,1.8019028108142496,-0.8774420708133471
0.1612386937264301,1.8017078131619313,-0.8544976882491014
0.16184944635418172,1.8015141315724974,-0.8314855971862033
0.16246019898193337,1.8013216332599953,-0.8084142194794817
0.163070951609685,1.8011301818096754,-0.7852915100236952
0.16368170423743664,1.8009396376360978,-0.7621249358155024
0.16429245686518826,1.8007498584470951,-0.7389214565273676
0.16490320949293988,1.8005606997122419,-0.7156875066572824
0.16551396212069153,1.80037201513442,-0.6924289793063472
0.16612471474844315,1.800183657123103,-0.6691512116369415
0.1667354673761948,1.799995477267928,-0.6458589720571509
0.16734622000394642,1.7998073268112333,-0.622556449168081
0.16795697263169804,1.7996190571180841,-0.599247242513849
0.16856772525944969,1.7994305201425198,-0.5759343551557508
0.16917847788720128,1.7992415688885797,-0.5526201881009251
0.16978923051495293,1.7990520578648306,-0.52930653659634
0.17039998314270455,1.798861843531076,-0.5059945883028643
0.17101073577045617,1.7986707847359633,-0.4826849233516409
0.17162148839820782,1.7984787431442535,-0.4593775162832068
0.17223224102595944,1.7982855836525546,-0.43607173986154063
0.17284299365371106,1.7980911747923618,-0.41276637074847894
0.1734537462814627,1.7978953891192664,-0.3894595970216059
0.17406449890921433,1.797698103587303,-0.3661490275066878
0.17467525153696598,1.7974991999073962,-0.3428317028969974
0.1752860041647176,1.7972985648889601,-0.3195041086205754
0.17589675679246922,1.7970960907637614,-0.29616218941213324
0.17650750942022086,1.7968916754912,-0.27280136554402185
0.17711826204797246,1.7966852230442398,-0.2494165506610406
0.1777290146757241,1.7964766436752797,-0.2260021711621646
0.17833976730347573,1.7962658541613505,-0.2025521870640781
0.17895051993122735,1.796052778028027,-0.17906011428217786
0.179561272558979,1.7958373457516044,-0.15551904825438168
0.18017202518673062,1.7956194949390811,-0.13192168883192773
0.18078277781448224,1.7953991704856263,-0.10826036635893752
0.18139353044223389,1.7951763247091916,-0.08452706885840357
0.1820042830699855,1.7949509174621547,-0.06071347023304598
0.18261503569773715,1.7947229162197635,-0.03681095939953139
0.18322578832548878,1.7944922961453855,-0.012810670257407055
0.1838365409532404,1.7942590401325333,0.011296487595323914
0.18444729358099204,1.7940231388237717,0.03551979750068002
0.18505804620874364,1.7937845906066283,0.05986870382606297
0.18566879883649529,1.7935434015867575,0.08435277959849515
0.1862795514642469,1.793299585538597,0.10898169378420298
0.18689030409199853,1.7930531638339093,0.13376517831505672
0.18750105671975018,1.7928041653485842,0.15871299496142854
0.1881118093475018,1.7925526263481824,0.18383490215102843
0.18872256197525342,1.7922985903527382,0.209140621832922
0.18933331460300507,1.7920421079814315,0.2346398064879301
0.18994406723075669,1.7917832367777078,0.2603420063791558
0.19055481985850833,1.7915220410155928,0.28625663714319316
0.19116557248625995,1.7912585914878683,0.31239294781346066
0.19177632511401158,1.790992965276933,0.33875998937176294
0.19238707774176322,1.7907252455091316,0.3653665839175387
0.19299783036951482,1.7904555210934128,0.39222129454331045
0.19360858299726647,1.7901838864452,0.4193323960027556
0.19421933562501809,1.7899104411963982,0.44670784625683
0.1948300882527697,1.7896352898924603,0.4743552589738132
0.19544084088052135,1.78935854167753,0.5022818770665759
0.19605159350827298,1.7890803099685808,0.530494547334525
0.19666234613602462,1.7888007121196476,0.5589996962864292
0.19727309876377624,1.788519869077106,0.5878033072076474
0.19788385139152787,1.788237905027091,0.6169108985348
0.1984946040192795,1.7879549470360683,0.6463275035991171
0.19910535664703113,1.787671124685654,0.6760576517899622
0.19971610927478275,1.7873865697027134,0.7061053511937374
0.20032686190253438,1.7871014155858216,0.736474072750201
0.200937614530286,1.7868157972291498,0.7671667359713114
0.20154836715803764,1.7865298505448253,0.7981856962598611
0.20215911978578927,1.7862437120848424,0.829532733859961
0.20276987241354089,1.7859575186635386,0.8612090444699828
0.20338062504129253,1.7856714069817126,0.8932152315391196
0.20399137766904415,1.7853855132533558,0.9255513002706521
0.2046021302967958,1.7850999728360608,0.9582166533441334
0.20521288292454742,1.7848149198660332,0.9912100883651157
0.20582363555229904,1.7845304868987444,1.0245297970541947
0.2064343881800507,1.7842468045560946,1.0581733661657753
0.2070451408078023,1.7839640011810916,1.0921377801434686
