frequency,refractiveIndex,absorption
0.0006107526277516292,1.4922619106247814,-0.0005847516274855354
0.0012215052555032584,1.4923063349067383,-0.0023386599821819164
0.0018322578832548875,1.4923803181008883,-0.0052606864611962414
0.002443010511006517,1.4924837745063093,-0.00934910331861686
0.003053763138758146,1.4926165845654598,-0.01460149852237773
0.003664515766509775,1.4927785952839385,-0.021014782491388165
0.004275268394261404,1.492969620764496,-0.02858519665162547
0.004886021022013034,1.4931894428512282,-0.03730832373409128
0.005496773649764663,1.4934378118790006,-0.04717909972282683
0.006107526277516292,1.4937144475224962,-0.05819182734801539
0.006718278905267922,1.4940190397386723,-0.07034019100752756
0.00732903153301955,1.4943512497956721,-0.08361727299034181
0.00793978416077118,1.4947107113811755,-0.09801557086715713
0.008550536788522809,1.4950970317823151,-0.11352701590745916
0.009161289416274438,1.4955097931294565,-0.13014299237776059
0.009772042044026067,1.4959485536957065,-0.14785435757374898
0.010382794671777697,1.4964128492440725,-0.1666514624382426
0.010993547299529326,1.4969021944141527,-0.18652417261843485
0.011604299927280955,1.4974160841403923,-0.20746188981872069
0.012215052555032585,1.4979539950939944,-0.2294535733103014
0.012825805182784214,1.4985153871410732,-0.25248776146418606
0.013436557810535843,1.4990997048096084,-0.2765525931822715
0.014047310438287471,1.4997063787584128,-0.3016358291086152
0.0146580630660391,1.5003348272416113,-0.3277248725131358
0.015268815693790731,1.5009844575624038,-0.35480678974935714
0.01587956832154236,1.5016546675108098,-0.3828683301983587
0.01649032094929399,1.5023448467799172,-0.41189594562246956
0.017101073577045618,1.5030543783562351,-0.4418758088626882
0.01771182620479725,1.503782639879894,-0.4727938318253213
0.018322578832548876,1.504529004971037,-0.5046356827142673
0.018933331460300507,1.5052928445190739,-0.5373868024762495
0.019544084088052135,1.506073527932254,-0.5710324204363697
0.020154836715803762,1.5068704243449806,-0.6055575691120519
0.020765589343555393,1.507682903781062,-0.64094709820212
0.02137634197130702,1.5085103382713128,-0.6771856877572853
0.021987094599058652,1.5093521029242896,-0.7142578605459428
0.02259784722681028,1.5102075769492007,-0.7521479936372867
0.02320859985456191,1.5110761446305483,-0.7908403292298901
0.023819352482313542,1.5119571962539222,-0.8303189847601343
0.02443010511006517,1.512850128983042,-0.8705679623307935
0.025040857737816797,1.5137543476879596,-0.9115711575027516
0.025651610365568428,1.514669265724759,-0.9533123674989897
0.026262362993320056,1.5155943056671357,-0.9957752988710522
0.026873115621071687,1.5165288999903457,-1.0389435746810056
0.027483868248823314,1.5174724917081759,-1.0828007412542129
0.028094620876574942,1.518424534963616,-1.1273302745583802
0.028705373504326573,1.5193844955740408,-1.1725155862645484
0.0293161261320782,1.5203518515316954,-1.2183400295465703
0.029926878759829835,1.5213260934603066,-1.2647869046735596
0.030537631387581463,1.5223067250288262,-1.311839464449222
0.03114838401533309,1.5232932633230754,-1.3594809195501005
0.03175913664308472,1.5242852391763195,-1.4076944438125463
0.03236988927083635,1.525282197459608,-1.456463179516057
0.03298064189858798,1.5262836973329097,-1.5057702427069544
0.03359139452633961,1.5272893124578752,-1.5555987286043933
0.034202147154091235,1.528298631173216,-1.605931717126405
0.03481289978184286,1.5293112566336027,-1.6567522785705586
0.0354236524095945,1.5303268069130436,-1.7080434794798893
0.036034405037346125,1.5313449150736356,-1.7597883887209205
0.03664515766509775,1.5323652292006023,-1.81197008379717
0.03725591029284938,1.5333874124046425,-1.864571657416267
0.037866662920601014,1.5344111427924658,-1.9175762243262502
0.038477415548352635,1.5354361134064294,-1.9709669284316098
0.03908816817610427,1.5364620321343818,-2.02472695019605
0.039698920803855904,1.5374886215905492,-2.0788395143350713
0.040309673431607525,1.538515618968579,-2.1332878977972176
0.04092042605935916,1.5395427758676745,-2.1880554380300237
0.04153117868711079,1.5405698580929015,-2.2431255415223843
0.04214193131486242,1.5415966454307952,-2.298481692611425
0.04275268394261404,1.5426229314012077,-2.3541074625406515
0.04336343657036568,1.5436485229866517,-2.409986518750028
0.043974189198117304,1.5446732403402226,-2.466102634378999
0.04458494182586893,1.5456969164732395,-2.522439697958837
0.04519569445362056,1.5467193969238267,-2.578981723269427
0.045806447081372194,1.5477405394076498,-2.6357128593328074
0.04641719970912382,1.548760213451983,-2.692617400514625
0.04702795233687545,1.549778300014418,-2.7496797967027446
0.047638704964627084,1.5507946910874426,-2.806884663530886
0.048249457592378704,1.5518092892901494,-2.8642167926143363
0.04886021022013034,1.5528220074483932,-2.9216611617638315
0.049470962847881966,1.5538327681646888,-2.979202945142772
0.050081715475633594,1.5548415033790928,-3.036827523333805
0.05069246810338522,1.5558481539224247,-3.094520493279003
0.051303220731136856,1.5568526690630673,-3.1522676780594403
0.05191397335888848,1.5578550060486664,-3.2100551364796703
0.05252472598664011,1.5588551296439517,-3.267869172423025
0.053135478614391746,1.559853011665955,-3.325696343945037
0.05374623124214337,1.5608486305178726,-3.3835234720722487
0.054356983869895,1.5618419707227122,-3.441337649275697
0.05496773649764663,1.562833022457972,-3.499126247589374
0.05557848912539826,1.5638217810924675,-3.556876926343691
0.056189241753149884,1.5648082467263897,-3.614577639489384
0.05679999438090152,1.5657924237357292,-3.672216642483765
0.057410747008653146,1.5667743203220492,-3.7297824987168844
0.05802149963640477,1.5677539480685976,-3.787264085455667
0.0586322522641564,1.5687313215037753,-3.8446505992844346
0.059243004891908035,1.5697064576727493,-3.9019315610249468
0.05985375751965967,1.5706793757181725,-3.9590968201180514
0.06046451014741129,1.5716500964707536,-4.016136558452784
0.061075262775162925,1.5726186420504273,-4.073041293630484
0.06168601540291455,1.573585035478863,-4.129801881652771
0.06229676803066618,1.5745493003039777,-4.186409519023308
0.0629075206584178,1.57551146023699,-4.242855744258538
0.06351827328616944,1.5764715388026165,-4.299132438800331
0.06412902591392107,1.5774295590029415,-4.355231827327626
0.0647397785416727,1.5783855429953335,-4.411146477465861
0.06535053116942433,1.5793395117849063,-4.466869298893601
0.06596128379717596,1.5802914849317975,-4.522393541848927
0.0665720364249276,1.5812414802736563,-4.577712795038577
0.06718278905267921,1.5821895136635407,-4.632820982954913
0.06779354168043085,1.583135598723496,-4.687712362607948
0.06840429430818247,1.5840797466139822,-4.742381519679294
0.06901504693593409,1.5850219658192806,-4.796823364109241
0.06962579956368573,1.5859622619490104,-4.851033125126407
0.07023655219143736,1.5869006375557848,-4.905006345733002
0.070847304819189,1.587837091969095,-4.958738876659192
0.07145805744694061,1.5887716211453553,-5.012226869801176
0.07206881007469225,1.5897042175341278,-5.0654667711589525
0.07267956270244387,1.5906348699604198,-5.1184553132910375
0.0732903153301955,1.5915635635230168,-5.171189507303823
0.07390106795794714,1.592490279508646,-5.223666634395905
0.07451182058569876,1.5934149953219285,-5.27588423697553
0.0751225732134504,1.594337684430827,-5.327840109375405
0.07573332584120203,1.5952583163274994,-5.379532288183706
0.07634407846895366,1.596176856504272,-5.430959042216594
0.07695483109670527,1.597093266444517,-5.482118862154946
0.0775655837244569,1.598007503628132,-5.53301044987087
0.07817633635220854,1.5989195215514032,-5.583632707468135
0.07878708897996017,1.5998292697608907,-5.633984726063563
0.07939784160771181,1.6007366939010126,-5.684065774336606
0.08000859423546343,1.6016417357750183,-5.733875286873469
0.08061934686321505,1.6025443334189622,-5.783412852334733
0.08123009949096668,1.603444421188296,-5.83267820147491
0.08184085211871832,1.604341929856683,-5.8816711950435705
0.08245160474646994,1.6052367867266277,-5.9303918115967384
0.08306235737422157,1.606128915751471,-5.978840135249932
0.08367311000197321,1.6070182376683024,-6.0270163434024004
0.08428386262972484,1.6079046701413107,-6.074920694463791
0.08489461525747646,1.608788127915124,-6.12255351561437
0.08550536788522808,1.6096685229775685,-6.169915190629404
0.08611612051297972,1.6105457647313857,-6.217006147800287
0.08672687314073135,1.6114197601743552,-6.263826847982308
0.08733762576848299,1.612290414087243,-6.310377772801123
0.08794837839623461,1.6131576292290546,-6.356659413049257
0.08855913102398623,1.6140213065389535,-6.402672257303843
0.08916988365173786,1.6148813453443294,-6.4484167807943376
0.0897806362794895,1.6157376435743085,-6.493893434553345
0.09039138890724112,1.6165900979781715,-6.539102634877771
0.09100214153499275,1.6174386043479905,-6.584044753131157
0.09161289416274439,1.6182830577448595,-6.628720105914039
0.09222364679049602,1.619123352728088,-6.673128945630784
0.09283439941824764,1.6199593835866322,-6.717271451480162
0.09344515204599926,1.6207910445721856,-6.761147720893031
0.0940559046737509,1.6216182301331785,-6.804757761444091
0.09466665730150253,1.6224408351490556,-6.848101483259339
0.09527740992925417,1.623258755164136,-6.89117869194135
0.09588816255700579,1.6240718866203947,-6.93398908203283
0.09649891518475741,1.624880127088466,-6.976532231037786
0.09710966781250904,1.6256833754962239,-7.01880759401636
0.09772042044026068,1.6264815323542732,-7.060814498769428
0.09833117306801231,1.627274499977664,-7.102552141627364
0.09894192569576393,1.6280621827032367,-7.1440195838526925
0.09955267832351557,1.6288444871019139,-7.185215748668685
0.10016343095126719,1.6296213221853795,-7.226139418919448
0.10077418357901882,1.6303925996064694,-7.266789235369466
0.10138493620677044,1.6311582338527832,-7.30716369564427
0.10199568883452208,1.6319181424328675,-7.347261153814564
0.10260644146227371,1.6326722460545315,-7.387079820622406
0.10321719409002535,1.6334204687946845,-7.426617764348159
0.10382794671777695,1.6341627382603077,-7.465872912310167
0.10443869934552859,1.6348989857400407,-7.504843052993162
0.10504945197328022,1.6356291463459907,-7.54352583879298
0.10566020460103186,1.63635315914539,-7.581918789368157
0.10627095722878349,1.637070967281707,-7.620019295583385
0.10688170985653511,1.6377825180849286,-7.657824624030062
0.10749246248428675,1.6384877631707364,-7.695331922104145
0.10810321511203837,1.6391866585282837,-7.732538223625553
0.10871396773979,1.6398791645964346,-7.7694404549728695
0.10932472036754162,1.6405652463282443,-7.806035441714142
0.10993547299529326,1.6412448732435938,-7.842319915706004
0.11054622562304489,1.641918019469857,-7.878290522637078
0.11115697825079653,1.6425846637705852,-7.91394382998547
0.11176773087854816,1.6432447895621791,-7.949276335363048
0.11237848350629977,1.643898384918589,-7.9842844752150794
0.1129892361340514,1.644545442564119,-8.01896463384382
0.11359998876180304,1.6451859598544247,-8.05331315272442
0.11421074138955467,1.6458199387458678,-8.087326340078748
0.11482149401730629,1.646447385753417,-8.121000480674176
0.11543224664505793,1.647068311897286,-8.154331845812079
0.11604299927280955,1.647682732638575,-8.187316703472195
0.11665375190056118,1.648290667804202,-8.219951328576647
0.1172645045283128,1.648892141501432,-8.252232013339446
0.11787525715606444,1.6494871820223431,-8.284155077664282
0.11848600978381607,1.6500758217386144,-8.315716879558614
0.1190967624115677,1.6506580969870022,-8.346913825525432
0.11970751503931934,1.6512340479459733,-8.377742380900898
0.12031826766707095,1.6518037185038672,-8.408199080102644
0.12092902029482258,1.6523671561191173,-8.438280536755169
0.12153977292257422,1.6529244116729562,-8.467983453660208
0.12215052555032585,1.6534755393151332,-8.497304632578741
0.12276127817807747,1.6540205963031196,-8.526240983795315
0.1233720308058291,1.6545596428353533,-8.55478953543297
0.12398278343358073,1.655092741879029,-8.58294744249046
0.12459353606133236,1.6556199589929623,-8.61071199557364
0.125204288689084,1.6561413621461005,-8.638080629293837
0.1258150413168356,1.6566570215321872,-8.665050930309116
0.12642579394458725,1.6571670093811575,-8.69162064498166
0.12703654657233887,1.6576713997677939,-8.7177876866311
0.12764729920009052,1.6581702684181865,-8.743550142360867
0.12825805182784214,1.658663692514566,-8.76890627943727
0.12886880445559376,1.659151750499003,-8.793854551204634
0.1294795570833454,1.65963452187655,-8.81839360251687
0.13009030971109703,1.660112087018338,-8.842522274671737
0.13070106233884865,1.6605845269651183,-8.866239609833324
0.13131181496660027,1.6610519232317884,-8.88954485493071
0.13192256759435192,1.6615143576134128,-8.912437465019886
0.13253332022210354,1.661971911993155,-8.93491710610278
0.1331440728498552,1.6624246681526753,-8.956983657392884
0.13375482547760678,1.6628727075854022,-8.978637213022177
0.13436557810535843,1.6633161113131294,-8.999878083185429
0.13497633073311005,1.6637549597064005,-9.020706794716094
0.1355870833608617,1.664189332309046,-9.041124091095849
0.13619783598861332,1.6646193076673146,-9.061130931894018
0.13680858861636494,1.6650449631639581,-9.080728491640437
0.13741934124411656,1.6654663748576524,-9.09991815813329
0.13803009387186818,1.665883617328076,-9.118701530187352
0.13864084649961983,1.6662967635270152,-9.137080414826821
0.13925159912737145,1.6667058846357685,-9.155056823930842
0.1398623517551231,1.6671110499291815,-9.1726329703406
0.14047310438287472,1.6675123266465612,-9.189811263435368
0.14108385701062634,1.6679097798697402,-9.206594304192778
0.141694609638378,1.6683034724085246,-9.222984879741722
0.1423053622661296,1.6686934646937541,-9.238985957424184
0.14291611489388123,1.6690798146781598,-9.254600678380307
0.14352686752163288,1.6694625777452154,-9.269832350672877
0.1441376201493845,1.669841806626122,-9.284684441969315
0.14474837277713615,1.6702175513251023,-9.299160571798902
0.14535912540488774,1.6705898590530814,-9.313264503406222
0.14596987803263936,1.6709587741699023,-9.32700013522029
0.146580630660391,1.671324338135114,-9.340371491963454
0.14719138328814263,1.671686589467431,-9.353382715420514
0.14780213591589428,1.6720455637128666,-9.366038054894748
0.1484128885436459,1.6724012934216113,-9.378341857373112
0.14902364117139752,1.6727538081335964,-9.39029855742902
0.14963439379914917,1.6731031343727791,-9.401912666887
0.1502451464269008,1.6734492956500664,-9.413188764278832
0.15085589905465244,1.673792312474835,-9.424131484117463
0.15146665168240406,1.6741322023749836,-9.4347455060182
0.15207740431015568,1.6744689799253598,-9.445035543698005
0.15268815693790733,1.6748026567845127,-9.455006333880124
0.15329890956565892,1.6751332417395695,-9.464662625136484
0.15390966219341054,1.6754607407591093,-9.474009166698
0.1545204148211622,1.6757851570538314,-9.483050697263701
0.1551311674489138,1.6761064911448345,-9.491791933840448
0.15574192007666546,1.6764247409392659,-9.500237560644475
0.15635267270441708,1.6767399018131344,-9.508392218095185
0.1569634253321687,1.6770519667009818,-9.516260491935148
0.15757417795992035,1.6773609261921882,-9.523846902504658
0.15818493058767197,1.6776667686335827,-9.531155894204256
0.15879568321542362,1.6779694802380662,-9.538191825174371
0.15940643584317524,1.678269045198916,-9.544958957224196
0.16001718847092686,1.6785654458094406,-9.551461446036903
0.1606279410986785,1.6788586625876145,-9.5577033316834
0.1612386937264301,1.6791486744053323,-9.563688529471847
0.16184944635418172,1.679435458621914,-9.569420821158566
0.16246019898193337,1.6797189912214374,-9.57490384655194
0.163070951609685,1.6799992469535285,-9.580141095529775
0.16368170423743664,1.6802761994771718,-9.585135900498425
0.16429245686518826,1.6805498215071264,-9.589891429315863
0.16490320949293988,1.6808200849625263,-9.594410678700662
0.16551396212069153,1.681086961117228,-9.598696468147226
0.16612471474844315,1.681350420751446,-9.602751434369313
0.1667354673761948,1.6816104343042608,-9.606578026286602
0.16734622000394642,1.6818669720265502,-9.610178500571122
0.16795697263169804,1.6821200041338729,-9.613554917770616
0.16856772525944969,1.6823695009588948,-9.616709139018175
0.16917847788720128,1.6826154331028969,-9.61964282334155
0.16978923051495293,1.682857771585912,-9.622357425581676
0.17039998314270455,1.6830964879951005,-9.624854194925673
0.17101073577045617,1.683331554630883,-9.627134174061847
0.17162148839820782,1.683562944650455,-9.629198198959187
0.17223224102595944,1.683790632208242,-9.631046899274404
0.17284299365371106,1.6840145925929202,-9.632680699383522
0.1734537462814627,1.6842348023605895,-9.634099820038873
0.17406449890921433,1.6844512394637465,-9.635304280644638
0.17467525153696598,1.6846638833756795,-9.636293902146916
0.1752860041647176,1.6848727152099379,-9.637068310528845
0.17589675679246922,1.685077717834578,-9.637626940900045
0.17650750942022086,1.6852788759808208,-9.637969042171601
0.17711826204797246,1.6854761763458728,-9.638093682298814
0.1777290146757241,1.6856696076896145,-9.63799975408032
0.17833976730347573,1.6858591609249107,-9.637685981491725
0.17895051993122735,1.6860448292012897,-9.637150926540334
0.179561272558979,1.6862266079818133,-9.636392996615676
0.18017202518673062,1.6864044951129145,-9.635410452316131
0.18078277781448224,1.6865784908870458,-9.634201415729278
0.18139353044223389,1.6867485980979973,-9.632763879138498
0.1820042830699855,1.686914822088764,-9.631095714130844
0.18261503569773715,1.6870771707918513,-9.629194681080183
0.18322578832548878,1.687235654761935,-9.627058438977098
0.1838365409532404,1.687390287200866,-9.624684555572129
0.18444729358099204,1.6875410839749314,-9.622070517809437
0.18505804620874364,1.6876880636244018,-9.619213742513049
0.18566879883649529,1.6878312473653885,-9.616111587297734
0.1862795514642469,1.687970659084,-9.612761361671456
0.18689030409199853,1.6881063253229274,-9.609160338295586
0.18750105671975018,1.6882382752604743,-9.605305764371748
0.1881118093475018,1.6883665406821837,-9.601194873119692
0.18872256197525342,1.6884911559451619,-9.59682489531374
0.18933331460300507,1.6886121579352473,-9.592193070844173
0.18994406723075669,1.6887295860171894,-9.587296660269452
0.19055481985850833,1.6888434819780245,-9.58213295632598
0.19116557248625995,1.6889538899638317,-9.576699295362722
0.19177632511401158,1.6890608564101084,-9.570993068666011
0.19238707774176322,1.6891644299659823,-9.565011733643944
0.19299783036951482,1.689264661412504,-9.558752824837672
0.19360858299726647,1.6893616035753078,-9.552213964726946
0.19421933562501809,1.6894553112318889,-9.54539287430106
0.1948300882527697,1.6895458410137913,-9.5382873833641
0.19544084088052135,1.6896332513040315,-9.530895440545274
0.19605159350827298,1.6897176021300226,-9.523215122986914
0.19666234613602462,1.6897989550523744,-9.515244645681054
0.19727309876377624,1.6898773730498446,-9.506982370430977
0.19788385139152787,1.689952920400822,-9.498426814410672
0.1984946040192795,1.6900256625616572,-9.489576658297985
0.19910535664703113,1.690095666042207,-9.480430753961603
0.19971610927478275,1.6901629982789341,-9.470988131676076
0.20032686190253438,1.6902277275059316,-9.46124800684899
0.200937614530286,1.6902899226242274,-9.451209786239357
0.20154836715803764,1.6903496530697295,-9.44087307364993
0.20215911978578927,1.6904069886801942,-9.430237675078846
0.20276987241354089,1.69046199956154,-9.419303603315639
0.20338062504129253,1.6905147559539366,-9.4080710819686
0.20399137766904415,1.6905653280979616,-9.396540548912805
0.2046021302967958,1.690613786101234,-9.384712659149594
0.20521288292454742,1.6906601998058604,-9.372588287069215
0.20582363555229904,1.6907046386570461,-9.36016852810933
0.2064343881800507,1.6907471715732298,-9.347454699807273
0.2070451408078023,1.690787866818067,-9.334448342240988
0.2076558934355539,1.6908267918746118,-9.321151217857757
0.20826664606330555,1.6908640133220143,-9.307565310692786
0.20887739869105718,1.6908995967150637,-9.293692824976898
0.20948815131880882,1.6909336064668616,-9.279536183141287
0.21009890394656044,1.6909661057349714,-9.265098023220013
