frequency,refractiveIndex,absorption
0.0006107526277516292,1.7185611232768665,-0.00013814151568863182
0.0012215052555032584,1.7185869752254164,-0.0005527628113614973
0.0018322578832548875,1.7186300152635225,-0.0012444533216908386
0.002443010511006517,1.7186901736668954,-0.0022141927355417462
0.003053763138758146,1.7187673530014,-0.003463346948088428
0.003664515766509775,1.7188614283027857,-0.0049936624048170465
0.004275268394261404,1.718972247307686,-0.00680725884849251
0.004886021022013034,1.7190996307357234,-0.00890662048346304
0.005496773649764663,1.719243372622609,-0.011294585574944387
0.006107526277516292,1.7194032407040525,-0.013974334504344486
0.006718278905267922,1.7195789768502938,-0.016949376305161502
0.00732903153301955,1.7197702975509797,-0.020223533707572596
0.00793978416077118,1.7199768944501082,-0.02380092672340657
0.008550536788522809,1.720198434930674,-0.027685954807129123
0.009161289416274438,1.7204345627485673,-0.031883277632160985
0.009772042044026067,1.720684898715305,-0.03639779452593643
0.010382794671777697,1.7209490414289574,-0.04123462261133138
0.010993547299529326,1.7212265680526344,-0.04639907370582854
0.011604299927280955,1.7215170351398104,-0.05189663003476512
0.012215052555032585,1.7218199795056397,-0.057732918818715576
0.012825805182784214,1.7221349191432769,-0.06391368579990019
0.013436557810535843,1.722461354184127,-0.07044476777700835
0.014047310438287471,1.722798767900922,-0.07733206422199641
0.0146580630660391,1.7231466277521539,-0.08458150805761365
0.015268815693790731,1.7235043864664907,-0.0921990356782552
0.01587956832154236,1.7238714831655926,-0.10019055630176041
0.01649032094929399,1.7242473445234539,-0.1085619207440329
0.017101073577045618,1.7246313859604718,-0.11731888971269348
0.01771182620479725,1.725023012870083,-0.1264671017202401
0.018322578832548876,1.7254216218758025,-0.1360120407212202
0.018933331460300507,1.7258266021161826,-0.14595900358180147
0.019544084088052135,1.7262373365551782,-0.15631306749361976
0.020154836715803762,1.7266532033151678,-0.1670790574473119
0.020765589343555393,1.7270735770297225,-0.17826151388371625
0.02137634197130702,1.727497830213069,-0.18986466064394358
0.021987094599058652,1.727925334643011,-0.20189237334107976
0.02259784722681028,1.7283554627539612,-0.21434814827840112
0.02320859985456191,1.728787589036547,-0.22723507204039303
0.023819352482313542,1.7292210914401418,-0.24055579188290963
0.02443010511006517,1.7296553527745684,-0.25431248705001086
0.025040857737816797,1.7300897621070372,-0.26850684114330753
0.025651610365568428,1.7305237161503775,-0.283140015670114
0.026262362993320056,1.7309566206384415,-0.29821262489344214
0.026873115621071687,1.731387891684591,-0.31372471210572295
0.027483868248823314,1.7318169571190094,-0.32967572744418183
0.028094620876574942,1.7322432578006433,-0.34606450736306166
0.028705373504326573,1.7326662488995772,-0.36288925587196486
0.0293161261320782,1.7330854011455001,-0.38014752764606874
0.029926878759829835,1.7335002020381682,-0.3978362131067831
0.030537631387581463,1.733910157015691,-0.41595152556557363
0.03114838401533309,1.7343147905764977,-0.4344889905164115
0.03175913664308472,1.734713647351137,-0.4534434371540588
0.03236988927083635,1.7351062931199313,-0.47280899218770356
0.03298064189858798,1.7354923157728912,-0.49257907600944556
0.03359139452633961,1.7358713262082672,-0.5127464012687926
0.034202147154091235,1.7362429591664383,-0.5333029738932827
0.03481289978184286,1.7366068739960112,-0.5542400965855906
0.0354236524095945,1.7369627553491735,-0.5755483748165638
0.036034405037346125,1.7373103138037442,-0.597217725322394
0.03664515766509775,1.737649286409445,-0.6192373871033774
0.03725591029284938,1.7379794371563615,-0.6415959349097925
0.037866662920601014,1.738300557363797,-0.664281295189339
0.038477415548352635,1.7386124659880127,-0.6872807644590083
0.03908816817610427,1.738915009847745,-0.7105810300528669
0.039698920803855904,1.7392080637666487,-0.7341681931864162
0.040309673431607525,1.7394915306322023,-0.7580277942664996
0.04092042605935916,1.7397653413709229,-0.7821448403660016
0.04153117868711079,1.740029454840147,-0.8065038347717075
0.04214193131486242,1.7402838576368902,-0.831088808504404
0.04275268394261404,1.7405285638246946,-0.8558833537004802
0.04336343657036568,1.740763614579716,-0.8808706587362508
0.043974189198117304,1.740989077757608,-0.9060335449677767
0.04458494182586893,1.741205047383068,-0.9313545049521459
0.04519569445362056,1.7414116430642759,-0.956815742008695
0.045806447081372194,1.7416090093346854,-0.9823992109739164
0.04641719970912382,1.7417973149249306,-1.0080866599979237
0.04702795233687545,1.7419767519678884,-1.0338596732266705
0.047638704964627084,1.7421475351401614,-1.0596997142105324
0.048249457592378704,1.7423099007434608,-1.0855881698773273
0.04886021022013034,1.7424641057295749,-1.1115063949064905
0.049470962847881966,1.742610426672841,-1.1374357563395965
0.050081715475633594,1.74274915869406,-1.1633576782635353
0.05069246810338522,1.7428806143401,-1.1892536864022358
0.051303220731136856,1.7430051224234147,-1.2151054524552494
0.05191397335888848,1.7431230268258282,-1.240894838023627
0.05252472598664011,1.7432346852710334,-1.266603937966429
0.053135478614391746,1.7433404680702165,-1.29221512303512
0.05374623124214337,1.7434407568453738,-1.3177110816375122
0.054356983869895,1.7435359432346795,-1.3430748605872476
0.05496773649764663,1.7436264275844588,-1.368289904701903
0.05557848912539826,1.7437126176321125,-1.3933400951163406
0.056189241753149884,1.7437949271843582,-1.4182097861868064
0.05679999438090152,1.7438737747950606,-1.4428838408663915
0.057410747008653146,1.7439495824468116,-1.4673476644404084
0.05802149963640477,1.7440227742403165,-1.4915872365169567
0.0586322522641564,1.7440937750955356,-1.5155891411769045
0.059243004891908035,1.7441630094683522,-1.5393405951936847
0.05985375751965967,1.7442309000864582,-1.5628294742422235
0.06046451014741129,1.744297866707935,-1.5860443370241142
0.061075262775162925,1.7443643249058345,-1.608974447244805
0.06168601540291455,1.7444306848819815,-1.6316097933852611
0.06229676803066618,1.744497350312955,-1.6539411062198641
0.0629075206584178,1.7445647172310466,-1.6759598740404018
0.06351827328616944,1.7446331729428464,-1.6976583555526896
0.06412902591392107,1.7447030949879136,-1.7190295904215585
0.0647397785416727,1.7447748501397569,-1.7400674074465732
0.06535053116942433,1.7448487934512595,-1.760766430359013
0.06596128379717596,1.744925267346391,-1.7811220812378887
0.0665720364249276,1.7450046007599969,-1.8011305815493122
0.06718278905267921,1.7450871083271482,-1.8207889508216466
0.06779354168043085,1.7451730896234536,-1.8400950029745697
0.06840429430818247,1.7452628284575575,-1.859047340327081
0.06901504693593409,1.7453565922168297,-1.877645345316481
0.06962579956368573,1.7454546312671322,-1.895889169965286
0.07023655219143736,1.7455571784074113,-1.9137797231399973
0.070847304819189,1.745664448379659,-1.9313186556511497
0.07145805744694061,1.7457766374346848,-1.9485083432490924
0.07206881007469225,1.745893922953968,-1.9653518675756678
0.07267956270244387,1.7460164631277582,-1.981852995137639
0.0732903153301955,1.7461443966894132,-1.9980161543712862
0.07390106795794714,1.7462778427058852,-2.0138464108735303
0.07451182058569876,1.7464169004240973,-2.029349440878765
0.0751225732134504,1.7465616491728506,-2.0445315030658224
0.07573332584120203,1.746712148319821,-2.0593994087822156
0.07634407846895366,1.7468684372830092,-2.0739604907780995
0.07695483109670527,1.7470305355960054,-2.088222570545544
0.0775655837244569,1.7471984430261815,-2.1021939243628496
0.07817633635220854,1.7473721397450146,-2.1158832481455
0.07878708897996017,1.7475515865494442,-2.129299621210971
0.07939784160771181,1.747736725133173,-2.1424524690657893
0.08000859423546343,1.7479274784067758,-2.155351525325545
0.08061934686321505,1.7481237508651981,-2.1680067928841074
0.08123009949096668,1.748325429001385,-2.180428504446175
0.08184085211871832,1.7485323817644547,-2.1926270825435075
0.08245160474646994,1.7487444610608993,-2.204613099154479
0.08306235737422157,1.748961502297167,-2.2163972350482
0.08367311000197321,1.7491833249618272,-2.22799023897809
0.08428386262972484,1.7494097332455718,-2.2394028868462295
0.08489461525747646,1.7496405166970699,-2.250645940966276
0.08550536788522808,1.7498754509127623,-2.26173010954691
0.08611612051297972,1.75011429825849,-2.2726660065227593
0.08672687314073135,1.7503568086208638,-2.2834641118560497
0.08733762576848299,1.7506027201861234,-2.294134732433314
0.08794837839623461,1.7508517602442975,-2.3046879636790933
0.08855913102398623,1.7511036460162657,-2.3151336520075585
0.08916988365173786,1.7513580855013906,-2.3254813582314338
0.0897806362794895,1.7516147783432472,-2.3357403220438537
0.09039138890724112,1.7518734167110084,-2.345919427687348
0.09100214153499275,1.752133686193902,-2.356027170920527
0.09161289416274439,1.7523952667062623,-2.3660716273880364
0.09222364679049602,1.752657833400495,-2.376060422498151
0.09283439941824764,1.752921057585424,-2.38600070290412
0.09344515204599926,1.7531846076473254,-2.3958991096841005
0.0940559046737509,1.7534481499710726,-2.4057617533062596
0.09466665730150253,1.7537113498587114,-2.4155941904616833
0.09527740992925417,1.7539738724428684,-2.4254014028406115
0.09588816255700579,1.7542353835923528,-2.4351877779221085
0.09649891518475741,1.7544955508074158,-2.444957091838454
0.09710966781250904,1.7547540441020435,-2.454712494371667
0.09772042044026068,1.7550105368708588,-2.464456496127989
0.09833117306801231,1.7552647067380973,-2.474190957932854
0.09894192569576393,1.7555162363863341,-2.4839170824767827
0.09955267832351557,1.755764814362579,-2.493635408238411
0.10016343095126719,1.7560101358595244,-2.503345805699357
0.10077418357901882,1.756251903469779,-2.5130474758596204
0.10138493620677044,1.7564898279110313,-2.5227389510523417
0.10199568883452208,1.7567236287201633,-2.5324180980488973
0.10260644146227371,1.7569530349144968,-2.5420821234368685
0.10321719409002535,1.757177785618409,-2.5517275812446467
0.10382794671777695,1.7573976306537271,-2.561350382778746
0.10443869934552859,1.7576123310924692,-2.5709458086304218
0.10504945197328022,1.7578216597704837,-2.5805085228024276
0.10566020460103186,1.7580254017609491,-2.5900325888961033
0.10627095722878349,1.7582233548065322,-2.5995114882948824
0.10688170985653511,1.7584153297094292,-2.608938140268901
0.10749246248428675,1.7586011506784607,-2.618304923922453
0.10810321511203837,1.7587806556326837,-2.6276037018976206
0.10871396773979,1.758953696461053,-2.6368258457408746
0.10932472036754162,1.7591201392378601,-2.6459622628353996
0.10993547299529326,1.7592798643938536,-2.655003424794182
0.11054622562304489,1.7594327668430367,-2.6639393972078147
0.11115697825079653,1.7595787560653466,-2.672759870632516
0.11176773087854816,1.7597177561455701,-2.681454192703215
0.11237848350629977,1.7598497057689446,-2.690011401252413
0.1129892361340514,1.7599745581741013,-2.6984202583124706
0.11359998876180304,1.7600922810641049,-2.7066692848772727
0.11421074138955467,1.7602028564765033,-2.7147467962970055
0.11482149401730629,1.7603062806134087,-2.722640938180653
0.11543224664505793,1.7604025636327474,-2.7303397226773756
0.11604299927280955,1.7604917294019728,-2.737831065010386
0.11665375190056118,1.7605738152155967,-2.7451028201370677
0.1172645045283128,1.7606488714780049,-2.7521428194084367
0.11787525715606444,1.7607169613531368,-2.7589389071050507
0.11848600978381607,1.7607781603826862,-2.7654789767268877
0.1190967624115677,1.7608325560744937,-2.7717510069176843
0.11970751503931934,1.7608802474630032,-2.7777430969071615
0.12031826766707095,1.7609213446435614,-2.7834435013571315
0.12092902029482258,1.7609559682824951,-2.7888406645027355
0.12153977292257422,1.7609842491049,-2.793923253482413
0.12215052555032585,1.7610063273621075,-2.798680190755295
0.12276127817807747,1.76102235228084,-2.803100685508912
0.1233720308058291,1.761032481496052,-2.8071742639661537
0.12398278343358073,1.7610368804695153,-2.810890798503251
0.12459353606133236,1.761035721896113,-2.8142405354988456
0.125204288689084,1.7610291850999324,-2.817214121835664
0.1258150413168356,1.7610174554221179,-2.8198026299866537
0.12642579394458725,1.7610007236024687,-2.821997581619201
0.12703654657233887,1.7609791851567769,-2.8237909696581043
0.12764729920009052,1.7609530397517885,-2.825175278755893
0.12825805182784214,1.7609224905797187,-2.8261435041202434
0.12886880445559376,1.7608877437341488,-2.826689168659469
0.1294795570833454,1.7608490075891132,-2.8268063384091024
0.13009030971109703,1.7608064921831263,-2.8264896362100744
0.13070106233884865,1.7607604086098394,-2.8257342536147396
0.13131181496660027,1.7607109684169853,-2.8245359610018768
0.13192256759435192,1.7606583830151579,-2.8228911158888526
0.13253332022210354,1.7606028630979578,-2.820796669433173
0.1331440728498552,1.760544618074938,-2.818250171122552
0.13375482547760678,1.7604838555187374,-2.8152497716565326
0.13436557810535843,1.760420780627696,-2.8117942240291307
0.13497633073311005,1.7603555957051793,-2.8078828828264224
0.1355870833608617,1.760288499656804,-2.8035157017586942
0.13619783598861332,1.7602196875066054,-2.7986932294491873
0.13680858861636494,1.7601493499331993,-2.793416603511176
0.13741934124411656,1.7600776728268597,-2.7876875429418937
0.13803009387186818,1.7600048368683598,-2.78150833887591
0.13864084649961983,1.7599310171304017,-2.774881843734359
0.13925159912737145,1.7598563827023044,-2.767811458819306
0.1398623517551231,1.7597810963386258,-2.7603011204011656
0.14047310438287472,1.7597053141322572,-2.752355284351093
0.14108385701062634,1.7596291852124917,-2.743978909378278
0.141694609638378,1.7595528514684826,-2.735177438928157
0.1423053622661296,1.759476447298451,-2.7259567818068806
0.14291611489388123,1.759400099384875,-2.716323291598628
0.14352686752163288,1.759323926495926,-2.706283744942668
0.1441376201493845,1.759248039313227,-2.6958453187433893
0.14474837277713615,1.7591725402860425,-2.6850155663867765
0.14535912540488774,1.75909752351187,-2.6738023930395083
0.14596987803263936,1.7590230746433675,-2.6622140301099155
0.146580630660391,1.7589492708215078,-2.650259008949283
0.14719138328814263,1.7588761806347226,-2.6379461338780863
0.14780213591589428,1.7588038641037997,-2.625284454618313
0.1484128885436459,1.758732372692197,-2.6122832382187346
0.14902364117139752,1.7586617493414072,-2.598951940557402
0.14963439379914917,1.7585920285308894,-2.585300177509626
0.1502451464269008,1.7585232363621148,-2.571337695868021
0.15085589905465244,1.7584553906661218,-2.5570743441037016
0.15146665168240406,1.7583885011339977,-2.542520043055856
0.15207740431015568,1.7583225694696092,-2.5276847566384086
0.15268815693790733,1.758257589563853,-2.5125784626525443
0.15329890956565892,1.7581935476896657,-2.497211123791198
0.15390966219341054,1.7581304227169798,-2.4815926589252837
0.1545204148211622,1.75806818634676,-2.4657329147526488
0.1551311674489138,1.7580068033631986,-2.44964163790157
0.15574192007666546,1.7579462319031467,-2.433328447565308
0.15635267270441708,1.7578864237417706,-2.4168028087542934
0.1569634253321687,1.757827324593411,-2.4000740062439014
0.15757417795992035,1.7577688744266216,-2.3831511192941863
0.15818493058767197,1.7577110077922238,-2.3660429972205863
0.15879568321542362,1.757653654163348,-2.348758235883553
0.15940643584317524,1.757596738286237,-2.3313051551707975
0.16001718847092686,1.7575401805407067,-2.31369177753547
0.1606279410986785,1.757483897309038,-2.295925807655908
0.1612386937264301,1.7574278013521132,-2.2780146132758787
0.16184944635418172,1.757371802191598,-2.259965207279229
0.16246019898193337,1.7573158064969097,-2.2417842310547593
0.163070951609685,1.75725971847579,-2.22347793919413
0.16368170423743664,1.7572034402672114,-2.205052185570875
0.16429245686518826,1.7571468723354107,-2.1865124108359493
0.16490320949293988,1.757089913863837,-2.167863631364981
0.16551396212069153,1.757032463147776,-2.149110429687625
0.16612471474844315,1.756974417984477,-2.130256946421255
0.1667354673761948,1.756915676059583,-2.1113068737315697
0.16734622000394642,1.7568561353287235,-2.0922634503306647
0.16795697263169804,1.756795694393107,-2.073129458026464
0.16856772525944969,1.7567342528680323,-2.053907219822116
0.16917847788720128,1.7566717117432282,-2.034598599569401
0.16978923051495293,1.75660797373397,-2.0152050031674698
0.17039998314270455,1.7565429436220084,-1.9957273812944076
0.17101073577045617,1.7564765285852963,-1.9761662336575214
0.17162148839820782,1.7564086385156354,-1.956521614739698
0.17223224102595944,1.756339186323362,-1.9367931410139578
0.17284299365371106,1.756268088228242,-1.916979999598046
0.1734537462814627,1.7561952640358272,-1.8970809583086163
0.17406449890921433,1.756120637398537,-1.8770943770784294
0.17467525153696598,1.756044136060822,-1.8570182206888677
0.1752860041647176,1.7559656920878175,-1.8368500727688257
0.17589675679246922,1.7558852420769306,-1.8165871510070377
0.17650750942022086,1.7558027273518932,-1.7962263235209783
0.17711826204797246,1.755718094138872,-1.7757641263194677
0.1777290146757241,1.7556312937242684,-1.7551967817979812
0.17833976730347573,1.7555422825939344,-1.7345202181954416
0.17895051993122735,1.7554510225535696,-1.713730089945927
0.179561272558979,1.7553574808301364,-1.6928217988505259
0.18017202518673062,1.7552616301542123,-1.6717905159935633
0.18078277781448224,1.7551634488232206,-1.6506312043290736
0.18139353044223389,1.7550629207455815,-1.6293386418553029
0.1820042830699855,1.7549600354658788,-1.607907445298897
0.18261503569773715,1.7548547881711785,-1.586332094226595
0.18322578832548878,1.7547471796787026,-1.5646069555035886
0.1838365409532404,1.7546372164051527,-1.5427263080127993
0.18444729358099204,1.754524910317974,-1.5206843675547619
0.18505804620874364,1.754410278868942,-1.4984753118442815
0.18566879883649529,1.7542933449105163,-1.4760933055197987
0.1862795514642469,1.754174136595412,-1.4535325250842581
0.18689030409199853,1.7540526872599278,-1.4307871836970605
0.18750105671975018,1.7539290352915966,-1.4078515557342217
0.1881118093475018,1.753803223981754,-1.3847200010404639
0.18872256197525342,1.7536753013636943,-1.3613869887944219
0.18933331460300507,1.7535453200370819,-1.3378471209113771
0.18994406723075669,1.753413336979346,-1.3140951549108781
0.19055481985850833,1.7532794133447995,-1.290126026177635
0.19116557248625995,1.753143614252264,-1.2659348695476258
0.19177632511401158,1.753006008562009,-1.2415170401511257
0.19238707774176322,1.7528666686428194,-1.216868133452293
0.19299783036951482,1.7527256701300271,-1.1919840044245322
0.19360858299726647,1.752583091675398,-1.166860785801695
0.19421933562501809,1.7524390146897137,-1.1414949053550663
0.1948300882527697,1.7522935230789312,-1.1158831021444797
0.19544084088052135,1.7521467029748623,-1.0900224416942883
0.19605159350827298,1.7519986424611804,-1.0639103300560777
0.19666234613602462,1.7518494312957509,-1.0375445267122183
0.19727309876377624,1.7516991606300985,-1.0109231562906373
0.19788385139152787,1.7515479227269695,-0.9840447190550795
0.1984946040192795,1.7513958106768361,-0.9569081001435074
0.19910535664703113,1.7512429181142541,-0.9295125775322313
0.19971610927478275,1.7510893389349256,-0.9018578287040311
0.20032686190253438,1.7509351670143334,-0.8739439360056832
0.200937614530286,1.750780495928804,-0.845771390681689
0.20154836715803764,1.7506254186798,-0.8173410955779944
0.20215911978578927,1.7504700274222802,-0.7886543665097974
0.20276987241354089,1.7503144131978952,-0.7597129322956261
0.20338062504129253,1.7501586656738033,-0.7305189334613794
0.20399137766904415,1.750002872887832,-0.7010749196199596
0.2046021302967958,1.749847121000707,-0.6713838455444752
0.20521288292454742,1.7496914940560488,-0.6414490659439523
0.20582363555229904,1.7495360737487835,-0.6112743289661274
0.2064343881800507,1.7493809392025927,-0.5808637684501596
0.2070451408078023,1.7492261667570281,-0.5502218949539267
0.2076558934355539,1.7490718297648187,-0.5193535855906243
