frequency,refractiveIndex,absorption
0.0006107526277516292,1.3523087079005274,-0.0008594146397026488
0.0012215052555032584,1.3525016102296987,-0.0034337259919455807
0.0018322578832548875,1.3528218300592187,-0.007711215244368541
0.002443010511006517,1.3532674722942046,-0.013672610137475243
0.003053763138758146,1.3538359440941365,-0.02129146042158137
0.003664515766509775,1.3545240114147,-0.030534638329548985
0.004275268394261404,1.3553278667314541,-0.04136294153369939
0.004886021022013034,1.3562432048300885,-0.05373177297897155
0.005496773649764663,1.3572653034340074,-0.0675918708076637
0.006107526277516292,1.3583891055498685,-0.08289006219224887
0.006718278905267922,1.359609300705974,-0.09957001698527496
0.00732903153301955,1.3609204026858996,-0.11757298029021826
0.00793978416077118,1.362316821863153,-0.13683846692769877
0.008550536788522809,1.3637929307707046,-0.15730490491082744
0.009161289416274438,1.3653431220468648,-0.17891021910678412
0.009772042044026067,1.3669618583551504,-0.20159234998681336
0.010382794671777697,1.3686437142596741,-0.2252897055840725
0.010993547299529326,1.3703834103407972,-0.24994154740128718
0.011604299927280955,1.372175840058139,-0.27548831302014165
0.012215052555032585,1.3740160900159086,-0.3018718795965195
0.012825805182784214,1.3758994543690573,-0.3290357733447983
0.013436557810535843,1.3778214441401615,-0.3569253306070231
0.014047310438287471,1.3797777922081742,-0.38548781625268724
0.0146580630660391,1.3817644546926695,-0.41467250505249353
0.015268815693790731,1.3837776094007304,-0.4444307313837917
0.01587956832154236,1.3858136519363566,-0.4747159122244942
0.01649032094929399,1.387869189999957,-0.505483547925035
0.017101073577045618,1.389941036333444,-0.5366912047529387
0.01771182620479725,1.3920262006972575,-0.5682984827113365
0.018322578832548876,1.3941218812016263,-0.6002669716603314
0.018933331460300507,1.396225455256637,-0.6325601983308277
0.019544084088052135,1.398334470354806,-0.6651435664210729
0.020154836715803762,1.4004466348554276,-0.6979842916116681
0.020765589343555393,1.4025598089024212,-0.7310513330213619
0.02137634197130702,1.4046719955754632,-0.7643153223569813
0.021987094599058652,1.4067813323478644,-0.7977484917781881
0.02259784722681028,1.408886082902879,-0.8313246013023758
0.02320859985456191,1.4109846293426966,-0.8650188664094413
0.023819352482313542,1.4130754648101016,-0.8988078863691461
0.02443010511006517,1.4151571865318584,-0.9326695737003422
0.025040857737816797,1.4172284892841502,-0.9665830850773779
0.025651610365568428,1.4192881592738207,-1.0005287539244427
0.026262362993320056,1.4213350684242927,-1.0344880248764559
0.026873115621071687,1.4233681690514017,-1.068443390235674
0.027483868248823314,1.4253864889119803,-1.102378328515529
0.028094620876574942,1.4273891266063639,-1.1362772451313508
0.028705373504326573,1.429375247315068,-1.1701254152736142
0.0293161261320782,1.4313440788495342,-1.203908928981652
0.029926878759829835,1.4332949079967152,-1.2376146384209832
0.030537631387581463,1.435227077137743,-1.271230107357064
0.03114838401533309,1.4371399811212842,-1.304743562810254
0.03175913664308472,1.439033064373006,-1.3381438488712167
0.03236988927083635,1.4409058182232326,-1.3714203826523192
0.03298064189858798,1.442757778435915,-1.404563112346408
0.03359139452633961,1.4445885229227517,-1.437562477364041
0.034202147154091235,1.44639766962733,-1.4704093705182184
0.03481289978184286,1.4481848745650543,-1.5030951022243089
0.0354236524095945,1.4499498300055131,-1.535611366683067
0.036034405037346125,1.4516922627848037,-1.567950210014144
0.03664515766509775,1.453411932736248,-1.6001040003058304
0.03725591029284938,1.4551086312285901,-1.632065399548918
0.037866662920601014,1.4567821798017944,-1.6638273374184769
0.038477415548352635,1.458432428891009,-1.6953829868701569
0.03908816817610427,1.4600592566302004,-1.7267257415145707
0.039698920803855904,1.461662567727472,-1.757849194733574
0.040309673431607525,1.4632422924047779,-1.7887471205004182
0.04092042605935916,1.464798385395304,-1.819413455865405
0.04153117868711079,1.46633082499235,-1.8498422850669582
0.04214193131486242,1.4678396121440573,-1.880027825226204
0.04275268394261404,1.4693247695888318,-1.9099644135827898
0.04336343657036568,1.4707863410267328,-1.9396464962276767
0.043974189198117304,1.472224390322599,-1.9690686182856547
0.04458494182586893,1.4736390007370037,-1.9982254155020773
0.04519569445362056,1.4750302741815653,-2.0271116071832473
0.045806447081372194,1.4763983304954869,-2.055721990440704
0.04641719970912382,1.4777433067405163,-2.0840514356868938
0.04702795233687545,1.479065356511811,-2.1120948833299638
0.047638704964627084,1.480364649262558,-2.1398473416116657
0.048249457592378704,1.481641369640358,-2.1673038855338294
0.04886021022013034,1.4828957168337449,-2.1944596568160315
0.049470962847881966,1.4841279039273396,-2.221309864826854
0.050081715475633594,1.485338157264463,-2.2478497884309165
0.05069246810338522,1.4865267158161404,-2.274074778691603
0.051303220731136856,1.4876938305556506,-2.2999802623716064
0.05191397335888848,1.4888397638379767,-2.3255617461702918
0.05252472598664011,1.4899647887835952,-2.3508148216391063
0.053135478614391746,1.4910691886662453,-2.3757351707152683
0.05374623124214337,1.4921532563044333,-2.400318571814158
0.054356983869895,1.4932172934565036,-2.4245609064222218
0.05496773649764663,1.4942616102192847,-2.4484581661311706
0.05557848912539826,1.495286524430329,-2.4720064600570772
0.056189241753149884,1.4962923610739134,-2.495202022586885
0.05679999438090152,1.4972794516910164,-2.518041221397219
0.057410747008653146,1.4982481337935032,-2.5405205656911334
0.05802149963640477,1.4991987502829003,-2.562636714599325
0.0586322522641564,1.5001316488740957,-2.584386485694306
0.059243004891908035,1.50104718152437,-2.6057668635675113
0.05985375751965967,1.501945703868221,-2.626775008419845
0.06046451014741129,1.502827574658411,-2.6474082646193513
0.061075262775162925,1.5036931552137287,-2.6676641691804357
0.06168601540291455,1.5045428088739448,-2.6875404601207045
0.06229676803066618,1.5053769004624717,-2.7070350846531572
0.0629075206584178,1.506195795757192,-2.7261462071748683
0.06351827328616944,1.5069998609699715,-2.7448722170125572
0.06412902591392107,1.5077894622353467,-2.763211735888956
0.0647397785416727,1.5085649651088506,-2.7811636250755685
0.06535053116942433,1.5093267340754524,-2.7987269921986417
0.06596128379717596,1.5100751320685746,-2.8159011976673782
0.0665720364249276,1.510810520000121,-2.832685860695109
0.06718278905267921,1.511533256301949,-2.849080864885701
0.06779354168043085,1.5122436964791885,-2.8650863633599735
0.06840429430818247,1.5129421926758078,-2.8807027833971635
0.06901504693593409,1.5136290932528098,-2.89593083056967
0.06962579956368573,1.5143047423793954,-2.910771492350298
0.07023655219143736,1.5149694796374518,-2.9252260411727082
0.070847304819189,1.5156236396396994,-2.9392960369273213
0.07145805744694061,1.5162675516617743,-2.952983328877457
0.07206881007469225,1.5169015392885805,-2.966290056980079
0.07267956270244387,1.5175259200751332,-2.979218652600044
0.0732903153301955,1.518141005222213,-2.991771838604563
0.07390106795794714,1.5187470992670329,-3.003952628829797
0.07451182058569876,1.5193444997891783,-3.015764326909579
0.0751225732134504,1.519933497132012,-3.027210524461335
0.07573332584120203,1.5205143741397784,-3.038295098622259
0.07634407846895366,1.5210874059105914,-3.049022208932503
0.07695483109670527,1.5216528595654786,-3.059396293563406
0.0775655837244569,1.5222109940336557,-3.0694220648899333
0.07817633635220854,1.5227620598542058,-3.0791045044073257
0.07878708897996017,1.5233062989942938,-3.088448856995494
0.07939784160771181,1.5238439446840495,-3.0974606245343916
0.08000859423546343,1.5243752212682506,-3.1061455588764275
0.08061934686321505,1.5249003440749267,-3.1145096541822954
0.08123009949096668,1.5254195193009499,-3.122559138630608
0.08184085211871832,1.5259329439147278,-3.130300465510507
0.08245160474646994,1.5264408055760514,-3.1377403037104834
0.08306235737422157,1.5269432825731528,-3.1448855276173298
0.08367311000197321,1.5274405437770124,-3.151743206441117
0.08428386262972484,1.5279327486129266,-3.1583205929838303
0.08489461525747646,1.5284200470493456,-3.164625111871432
0.08550536788522808,1.5289025796039482,-3.1706643472704648
0.08611612051297972,1.529380477366918,-3.176446030112278
0.08672687314073135,1.529853862041347,-3.1819780248504568
0.08733762576848299,1.5303228460006728,-3.1872683157776924
0.08794837839623461,1.530787532363038,-3.1923249929306583
0.08855913102398623,1.5312480150824115,-3.197156237613944
0.08916988365173786,1.5317043790563105,-3.201770307574021
0.0897806362794895,1.532156700249882,-3.2061755218588623
0.09039138890724112,1.5326050458361518,-3.210380245395613
0.09100214153499275,1.5330494743521124,-3.2143928733269584
0.09161289416274439,1.5334900358703798,-3.2182218151412623
0.09222364679049602,1.5339267721860543,-3.2218754786381303
0.09283439941824764,1.5343597170184058,-3.225362253770235
0.09344515204599926,1.5347888962269673,-3.2286904964022227
0.0940559046737509,1.5352143280415766,-3.2318685120323045
0.09466665730150253,1.5356360233058737,-3.234904539518214
0.09527740992925417,1.536053985733721,-3.237806734853676
0.09588816255700579,1.5364682121779758,-3.2405831550406097
0.09649891518475741,1.5368786929110068,-3.2432417421028084
0.09710966781250904,1.5372854119163137,-3.245790307287211
0.09772042044026068,1.5376883471905705,-3.2482365154986614
0.09833117306801231,1.5380874710553876,-3.250587870014631
0.09894192569576393,1.5384827504780303,-3.252851697525524
0.09955267832351557,1.5388741474003302,-3.2550351335461727
0.10016343095126719,1.539261619075002,-3.2571451082415215
0.10077418357901882,1.5396451184084854,-3.2591883327131956
0.10138493620677044,1.540024594309528,-3.2611712857862196
0.10199568883452208,1.5403999920425622,-3.2631002013401083
0.10260644146227371,1.5407712535850346,-3.264981056222185
0.10321719409002535,1.5411383179877536,-3.266819558783058
0.10382794671777695,1.5415011217373393,-3.268621138069319
0.10443869934552859,1.5418595991198438,-3.270390933709585
0.10504945197328022,1.5422136825845996,-3.2721337865242592
0.10566020460103186,1.5425633031073798,-3.273854229891473
0.10627095722878349,1.542908390551909,-3.2755564818945055
0.10688170985653511,1.5432488740287977,-3.2772444382782906
0.10749246248428675,1.5435846822509993,-3.2789216662348517
0.10810321511203837,1.5439157438848494,-3.280591399039675
0.10871396773979,1.544241987895817,-3.282256531554359
0.10932472036754162,1.5445633438880768,-3.283919616610598
0.10993547299529326,1.5448797424370715,-3.2855828622847327
0.11054622562304489,1.5451911154142075,-3.287248130073514
0.11115697825079653,1.5454973963029266,-3.2889169339729327
0.11176773087854816,1.5457985205053555,-3.290590440463929
0.11237848350629977,1.5460944256388267,-3.292269469403601
0.1129892361340514,1.5463850518215676,-3.2939544958166187
0.11359998876180304,1.5466703419469185,-3.2956456525807947
0.11421074138955467,1.5469502419454464,-3.2973427339962136
0.11482149401730629,1.5472247010344293,-3.2990452002247284
0.11543224664505793,1.5474936719541512,-3.300752182583962
0.11604299927280955,1.5477571111905608,-3.302462489678345
0.11665375190056118,1.5480149791838558,-3.304174614344945
0.1172645045283128,1.548267240522632,-3.3058867413909083
0.11787525715606444,1.5485138641232536,-3.3075967560969395
0.11848600978381607,1.5487548233941888,-3.309302253458898
0.1190967624115677,1.548990096385062,-3.311000548136172
0.11970751503931934,1.549219665920276,-3.312688685076607
0.12031826766707095,1.5494435197170437,-3.3143634507822872
0.12092902029482258,1.5496616504877807,-3.3160213851821325
0.12153977292257422,1.5498740560268207,-3.317658794073358
0.12215052555032585,1.5500807392814542,-3.3192717620945777
0.12276127817807747,1.5502817084073848,-3.320856166189499
0.1233720308058291,1.5504769768086826,-3.3224076895232524
0.12398278343358073,1.5506665631624013,-3.3239218358078495
0.12459353606133236,1.5508504914280425,-3.3253939439961226
0.125204288689084,1.5510287908420972,-3.326819203302013
0.1258150413168356,1.5512014958979479,-3.328192668503174
0.12642579394458725,1.5513686463114034,-3.329509275484371
0.12703654657233887,1.551530286972239,-3.3307638569779097
0.12764729920009052,1.5516864678820745,-3.3319511584577888
0.12825805182784214,1.5518372440790233,-3.333065854145178
0.12886880445559376,1.5519826755494968,-3.334102563083217
0.1294795570833454,1.5521228271276424,-3.3350558652377873
0.13009030971109703,1.552257768382875,-3.335920317583458
0.13070106233884865,1.5523875734959867,-3.336690470133094
0.13131181496660027,1.5525123211243492,-3.3373608818721103
0.13192256759435192,1.552632094256743,-3.337926136555639
0.13253332022210354,1.5527469800583282,-3.3383808583324237
0.1331440728498552,1.5528570697063349,-3.3387197271557474
0.13375482547760678,1.5529624582170194,-3.338937493946421
0.13436557810535843,1.5530632442644579,-3.3390289954707115
0.13497633073311005,1.5531595299917595,-3.338989168900006
0.1355870833608617,1.5532514208152797,-3.338813066018084
0.13619783598861332,1.553339025222413,-3.338495867044668
0.13680858861636494,1.5534224545635653,-3.3380328940438093
0.13741934124411656,1.5535018228388862,-3.3374196238873677
0.13803009387186818,1.5535772464803477,-3.33665170074737
0.13864084649961983,1.5536488441297682,-3.3357249480874094
0.13925159912737145,1.5537167364133517,-3.3346353801299715
0.1398623517551231,1.5537810457133356,-3.333379212775113
0.14047310438287472,1.5538418959373124,-3.33195287394656
0.14108385701062634,1.5538994122858028,-3.330353013346747
0.141694609638378,1.5539537210186407,-3.3285765115983446
0.1423053622661296,1.55400494922073,-3.3266204887554207
0.14291611489388123,1.5540532245677172,-3.3244823121674143
0.14352686752163288,1.5540986750921273,-3.322159603680216
0.1441376201493845,1.5541414289504822,-3.3196502461614954
0.14474837277713615,1.5541816141919442,-3.316952389336609
0.14535912540488774,1.5542193585289699,-3.3140644549259957
0.14596987803263936,1.5542547891104963,-3.3109851410739726
0.146580630660391,1.5542880322981385,-3.3077134260614605
0.14719138328814263,1.5543192134458776,-3.304248571297095
0.14780213591589428,1.5543484566837003,-3.3005901235824604
0.1484128885436459,1.5543758847056572,-3.2967379166471855
0.14902364117139752,1.5544016185627574,-3.292692071954959
0.14963439379914917,1.5544257774611403,-3.2884529987794138
0.1502451464269008,1.5544484785659303,-3.2840213935520803
0.15085589905465244,1.5544698368111667,-3.27939823848726
0.15146665168240406,1.554489964716204,-3.2745847994864192
0.15207740431015568,1.5545089722089216,-3.2695826233336662
0.15268815693790733,1.554526966456121,-3.264393534185708
0.15329890956565892,1.5545440517014142,-3.259019629370968
0.15390966219341054,1.5545603291109467,-3.2534632745069225
0.1545204148211622,1.5545758966272163,-3.247727097950375
0.1551311674489138,1.5545908488313007,-3.241813984596403
0.15574192007666546,1.5546052768137237,-3.235727069041372
0.15635267270441708,1.554619268054212,-3.2294697281294598
0.1569634253321687,1.5546329063105604,-3.2230455729021696
0.15757417795992035,1.5546462715167997,-3.2164584399723175
0.15818493058767197,1.5546594396908326,-3.209712382346582
0.15879568321542362,1.5546724828517187,-3.2028116597182272
0.15940643584317524,1.554685468946705,-3.1957607282599914
0.16001718847092686,1.554698461788139,-3.188564229940008
0.1606279410986785,1.5547115210003282,-3.181226981393315
0.1612386937264301,1.5547247019764239,-3.1737539623755397
0.16184944635418172,1.5547380558453503,-3.1661503038315213
0.16246019898193337,1.5547516294488068,-3.158421275611181
0.163070951609685,1.554765465328314,-3.1505722738644106
0.16368170423743664,1.5547796017222901,-3.142608808149774
0.16429245686518826,1.554794072573064,-3.134536488293205
0.16490320949293988,1.5548089075437772,-3.126361011029691
0.16551396212069153,1.5548241320450238,-3.1180881464670374
0.16612471474844315,1.5548397672711265,-3.1097237244072646
0.1667354673761948,1.5548558302458597,-3.101273620563159
0.16734622000394642,1.5548723338774644,-3.09274374270765
0.16795697263169804,1.5548892870227111,-3.084140016795177
0.16856772525944969,1.5549066945598171,-3.075468373090851
0.16917847788720128,1.5549245574699346,-3.0667347323476255
0.16978923051495293,1.5549428729269466,-3.0579449920683883
0.17039998314270455,1.5549616343952715,-3.049105012891168
0.17101073577045617,1.5549808317353608,-3.040220605132832
0.17162148839820782,1.5550004513165399,-3.0312975155323048
0.17223224102595944,1.5550204761368571,-3.022341414223854
0.17284299365371106,1.5550408859495466,-3.013357881981296
0.1734537462814627,1.5550616573957328,-3.004352397763386
0.17406449890921433,1.555082764142956,-2.9953303265965534
0.17467525153696598,1.5551041770291172,-2.986296907826437
0.1752860041647176,1.5551258642113965,-2.977257243769516
0.17589675679246922,1.5551477913197127,-2.968216288795325
0.17650750942022086,1.555169921614271,-2.9591788388668756
0.17711826204797246,1.5551922161467373,-2.9501495215669067
0.1777290146757241,1.5552146339245783,-2.941132786636155
0.17833976730347573,1.5552371320780867,-2.9321328970450384
0.17895051993122735,1.5552596660296292,-2.923153920624355
0.179561272558979,1.555282189664639,-2.914199722271372
0.18017202518673062,1.5553046555038614,-2.905273956752747
0.18078277781448224,1.5553270148764033,-2.896380062119023
0.18139353044223389,1.5553492180930892,-2.8875212537459043
0.1820042830699855,1.5553712146196728,-2.8787005190138766
0.18261503569773715,1.5553929532494322,-2.869920612638159
0.18322578832548878,1.555414382274696,-2.8611840526555534
0.1838365409532404,1.5554354496568585,-2.8524931170759062
0.18444729358099204,1.5554561031944358,-2.8438498412021103
0.18505804620874364,1.5554762906887487,-2.8352560156202675
0.18566879883649529,1.5554959601068177,-2.8267131848603784
0.1862795514642469,1.5555150597410567,-2.8182226467268725
0.18689030409199853,1.555533538365405,-2.8097854522932173
0.18750105671975018,1.5555513453875054,-2.801402406555973
0.1881118093475018,1.555568430996588,-2.7930740697406393
0.18872256197525342,1.5555847463067236,-2.784800759248971
0.18933331460300507,1.5556002434951288,-2.7765825522367207
0.18994406723075669,1.5556148759352235,-2.7684192888085453
0.19055481985850833,1.5556285983241656,-2.7603105758157156
0.19116557248625995,1.5556413668046019,-2.7522557912393952
0.19177632511401158,1.5556531390804076,-2.7442540891408287
0.19238707774176322,1.555663874526179,-2.736304405161602
0.19299783036951482,1.5556735342903072,-2.728405462549687
0.19360858299726647,1.5556820813914418,-2.7205557786912467
0.19421933562501809,1.5556894808082014,-2.7127536721243235
0.1948300882527697,1.555695699562,-2.7049972700094824
0.19544084088052135,1.5557007067928774,-2.6972845160317913
0.19605159350827298,1.555704473828249,-2.6896131787086763
0.19666234613602462,1.5557069742445095,-2.6819808600746082
0.19727309876377624,1.5557081839214422,-2.674385004715987
0.19788385139152787,1.5557080810894193,-2.6668229091266236
0.1984946040192795,1.5557066463693752,-2.659291731354568
0.19910535664703113,1.5557038628055866,-2.651788500910915
0.19971610927478275,1.5556997158912815,-2.644310128909873
0.20032686190253438,1.5556941935871373,-2.636853418410357
0.200937614530286,1.5556872863327533,-2.629415074926588
0.20154836715803764,1.5556789870511656,-2.6219917170807108
0.20215911978578927,1.5556692911465413,-2.6145798873617005
0.20276987241354089,1.5556581964951532,-2.607176062964294
0.20338062504129253,1.5556457034298004,-2.5997766666753637
0.20399137766904415,1.555631814717815,-2.5923780777762024
0.2046021302967958,1.5556165355328329,-2.5849766429347167
0.20521288292454742,1.55559987342052,-2.577568687053847
0.20582363555229904,1.5555818382584463,-2.5701505240487323
0.2064343881800507,1.555562442210321,-2.5627184675254986
0.2070451408078023,1.5555416996748135,-2.5552688413315594
0.2076558934355539,1.5555196272291973,-2.5477979899513583
0.20826664606330555,1.5554962435680493,-2.540302288721281
