frequency,refractiveIndex,absorption
0.0006107526277516292,1.1296733511321768,-0.006084131867164853
0.0012215052555032584,1.137143802182904,-0.02280086683957208
0.0018322578832548875,1.1466303554551829,-0.04743918008704676
0.002443010511006517,1.1567444508341205,-0.07795552049858374
0.003053763138758146,1.1669005029194082,-0.11303384587667743
0.003664515766509775,1.176871828395614,-0.15179467689226347
0.004275268394261404,1.1865775901889157,-0.19360835641410545
0.004886021022013034,1.1959964067171094,-0.23799645777438683
0.005496773649764663,1.2051312409362982,-0.2845785963718763
0.006107526277516292,1.2139946218738689,-0.33304192199345917
0.006718278905267922,1.2226022366447915,-0.38312249564550593
0.00732903153301955,1.230970127713199,-0.4345932829617423
0.00793978416077118,1.2391135028946176,-0.48725604854560167
0.008550536788522809,1.2470462847364612,-0.5409356686952737
0.009161289416274438,1.2547810009241414,-0.595476009308708
0.009772042044026067,1.2623288284735192,-0.6507368545367976
0.010382794671777697,1.269699702057691,-0.7065915631547578
0.010993547299529326,1.276902443374961,-0.7629252425254938
0.011604299927280955,1.2839448912045122,-0.8196332992088377
0.012215052555032585,1.290834023059099,-0.8766202691088887
0.012825805182784214,1.297576064937078,-0.9337988586668281
0.013436557810535843,1.304176588414497,-0.99108914778641
0.014047310438287471,1.3106405956043072,-1.0484179183382871
0.0146580630660391,1.3169725930552945,-1.1057180813124754
0.015268815693790731,1.3231766558360538,-1.162928182273608
0.01587956832154236,1.3292564830396159,-1.2199919695597952
0.01649032094929399,1.335215445852339,-1.2768580131955958
0.017101073577045618,1.341056629207335,-1.333479365131977
0.01771182620479725,1.3467828679140192,-1.3898132534284122
0.018322578832548876,1.3523967780338475,-1.4458208045264378
0.018933331460300507,1.3579007841626405,-1.5014667889535251
0.019544084088052135,1.3632971431840306,-1.5567193867256122
0.020154836715803762,1.3685879649759947,-1.6115499694492168
0.020765589343555393,1.3737752304819089,-1.6659328967060008
0.02137634197130702,1.378860807497766,-1.7198453247682477
0.021987094599058652,1.3838464644766049,-1.773267026066801
0.02259784722681028,1.3887338826085107,-1.8261802181348894
0.02320859985456191,1.393524666398294,-1.8785694009953713
0.023819352482313542,1.3982203529324224,-1.9304212021571923
0.02443010511006517,1.402822420000822,-1.9817242285479484
0.025040857737816797,1.4073322932170327,-2.0324689248403245
0.025651610365568428,1.4117513522614717,-2.082647437736761
0.026262362993320056,1.4160809363562856,-2.1322534858633277
0.026873115621071687,1.4203223490666292,-2.181282234993038
0.027483868248823314,1.424476862511177,-2.2297301783752213
0.028094620876574942,1.4285457210544008,-2.27759502199269
0.028705373504326573,1.4325301445442336,-2.324875574603673
0.0293161261320782,1.4364313311509511,-2.371571642453456
0.029926878759829835,1.4402504598563777,-2.4176839285617766
0.030537631387581463,1.4439886926364436,-2.463213936509209
0.03114838401533309,1.4476471763751115,-2.5081638786561506
0.03175913664308472,1.4512270445429094,-2.5525365887375644
0.03236988927083635,1.4547294186693898,-2.5963354387815203
0.03298064189858798,1.4581554096351863,-2.6395642603025875
0.03359139452633961,1.4615061188062235,-2.68222726972234
0.034202147154091235,1.464782639029779,-2.724328997969181
0.03481289978184286,1.4679860555096524,-2.765874224208012
0.0354236524095945,1.4711174465754742,-2.8068679136475243
0.036034405037346125,1.474177884359209,-2.847315159370648
0.03664515766509775,1.477168435390193,-2.887221128129455
0.03725591029284938,1.480090161118508,-2.9265910100421277
0.037866662920601014,1.4829441183750887,-2.9654299721258615
0.038477415548352635,1.4857313597758062,-3.0037431155951024
0.03908816817610427,1.4884529340756856,-3.0415354368496614
0.039698920803855904,1.4911098864784411,-3.0788117920751725
0.040309673431607525,1.493703258905762,-3.115576865371808
0.04092042605935916,1.4962340902300018,-3.1518351403247435
0.04153117868711079,1.498703416473329,-3.187590874926186
0.04214193131486242,1.501112270975857,-3.222848079754472
0.04275268394261404,1.5034616845347684,-3.2576104993131927
0.04336343657036568,1.5057526855161274,-3.291881596429224
0.043974189198117304,1.5079862999406526,-3.325664539607108
0.04458494182586893,1.510163551544498,-3.3589621932331757
0.04519569445362056,1.5122854618158479,-3.3917771105208496
0.045806447081372194,1.514353050007919,-3.424111529086979
0.04641719970912382,1.5163673331288603,-3.4559673690460797
0.04702795233687545,1.5183293259088841,-3.4873462335082603
0.047638704964627084,1.5202400407449106,-3.5182494113647755
0.048249457592378704,1.522100487622937,-3.548677882244269
0.04886021022013034,1.5239116740183083,-3.5786323235211177
0.049470962847881966,1.525674604774102,-3.608113119256427
0.050081715475633594,1.5273902819577572,-3.637120370952192
0.05069246810338522,1.5290597046961971,-3.6656539099983414
0.051303220731136856,1.5306838689896856,-3.6937133116911696
0.05191397335888848,1.5322637675046866,-3.721297910703439
0.05252472598664011,1.5338003893461012,-3.7484068178850487
0.053135478614391746,1.5352947198092768,-3.7750389382742466
0.05374623124214337,1.5367477401122782,-3.8011929901995822
0.054356983869895,1.5381604271089777,-3.826867525353776
0.05496773649764663,1.5395337529835773,-3.8520609497215466
0.05557848912539826,1.5408686849272923,-3.8767715452445626
0.056189241753149884,1.5421661847979458,-3.900997492108287
0.05679999438090152,1.543427208763377,-3.9247368915362806
0.057410747008653146,1.5446527069295461,-3.9479877889807953
0.05802149963640477,1.5458436229543973,-3.9707481975983634
0.0586322522641564,1.5470008936484865,-3.993016121903429
0.059243004891908035,1.5481254485635902,-4.014789581493621
0.05985375751965967,1.5492182095704239,-4.036066634744221
0.06046451014741129,1.550280090426782,-4.056845402370914
0.061075262775162925,1.5513119963373707,-4.077124090763823
0.06168601540291455,1.5523148235067135,-4.096901014998128
0.06229676803066618,1.553289458686498,-4.116174621430714
0.0629075206584178,1.5542367787188227,-4.134943509794777
0.06351827328616944,1.5551576500767583,-4.153206454709029
0.06412902591392107,1.5560529284037532,-4.170962426520242
0.0647397785416727,1.5569234580533224,-4.188210611404183
0.06535053116942433,1.5577700716305627,-4.204950430651892
0.06596128379717596,1.5585935895369807,-4.2211815590729715
0.0665720364249276,1.5593948195201393,-4.236903942453428
0.06718278905267921,1.5601745562296128,-4.252117814006958
0.06779354168043085,1.560933580780742,-4.266823709766526
0.06840429430818247,1.5616726603276179,-4.2810224828649295
0.06901504693593409,1.5623925476467613,-4.294715316658853
0.06962579956368573,1.5630939807328519,-4.307903736656504
0.07023655219143736,1.5637776824079093,-4.320589621211158
0.070847304819189,1.5644443599452111,-4.332775210950832
0.07145805744694061,1.565094704709231,-4.344463116916574
0.07206881007469225,1.565729391812815,-4.355656327388295
0.07267956270244387,1.566349079792751,-4.366358213381169
0.0732903153301955,1.5669544103048414,-4.3765725328002905
0.07390106795794714,1.5675460078395067,-4.3863034332467254
0.07451182058569876,1.5681244794588987,-4.395555453472283
0.0751225732134504,1.5686904145564247,-4.404333523484556
0.07573332584120203,1.5692443846395001,-4.41264296331008
0.07634407846895366,1.569786943136301,-4.420489480425069
0.07695483109670527,1.570318625227175,-4.427879165871138
0.0775655837244569,1.570839947701325,-4.434818489074164
0.07817633635220854,1.5713514088392688,-4.441314291390984
0.07878708897996017,1.5718534883215296,-4.447373778411927
0.07939784160771181,1.5723466471638927,-4.453004511050891
0.08000859423546343,1.5728313276795312,-4.458214395457973
0.08061934686321505,1.5733079534681602,-4.463011671794439
0.08123009949096668,1.5737769294323578,-4.4674049019120945
0.08184085211871832,1.5742386418210716,-4.471402955982139
0.08245160474646994,1.5746934583002585,-4.4750149981232905
0.08306235737422157,1.5751417280505333,-4.478250471078864
0.08367311000197321,1.5755837818916185,-4.481119079998544
0.08428386262972484,1.5760199324333095,-4.483630775379438
0.08489461525747646,1.5764504742526002,-4.485795735226191
0.08550536788522808,1.5768756840965366,-4.487624346490028
0.08611612051297972,1.5772958211103045,-4.489127185848664
0.08672687314073135,1.5777111270899744,-4.4903149998912975
0.08733762576848299,1.578121826759281,-4.491198684773275
0.08794837839623461,1.578528128069739,-4.491789265406382
0.08855913102398623,1.5789302225233404,-4.4920978742518605
0.08916988365173786,1.5793282855170268,-4.492135729783576
0.0897806362794895,1.579722476708075,-4.491914114689047
0.09039138890724112,1.5801129403994827,-4.491444353876207
0.09100214153499275,1.5804998059443973,-4.490737792354948
0.09161289416274439,1.580883188168589,-4.489805773059566
0.09222364679049602,1.5812631878099273,-4.488659614680971
0.09283439941824764,1.5816398919737893,-4.487310589574547
0.09344515204599926,1.5820133746032907,-4.4857699018095225
0.0940559046737509,1.5823836969632092,-4.484048665424968
0.09466665730150253,1.5827509081364357,-4.482157882955484
0.09527740992925417,1.5831150455317817,-4.480108424289457
0.09588816255700579,1.5834761354019353,-4.477911005919769
0.09649891518475741,1.5838341933703721,-4.475576170646195
0.09710966781250904,1.5841892249659841,-4.473114267786186
0.09772042044026068,1.5845412261642058,-4.4705354339494665
0.09833117306801231,1.5848901839334184,-4.467849574428504
0.09894192569576393,1.5852360767853857,-4.465066345255689
0.09955267832351557,1.5855788753285076,-4.462195135975126
0.10016343095126719,1.585918542822671,-4.459245053174714
0.10077418357901882,1.5862550357344907,-4.456224904820722
0.10138493620677044,1.5865883042917397,-4.4531431854352945
0.10199568883452208,1.5869182930358043,-4.450008062154251
0.10260644146227371,1.58724494137098,-4.4468273616993494
0.10321719409002535,1.5875681841095026,-4.443608558295865
0.10382794671777695,1.5878879520111766,-4.440358762564414
0.10443869934552859,1.5882041723165221,-4.437084711411903
0.10504945197328022,1.5885167692723887,-4.433792758943841
0.10566020460103186,1.5888256646490075,-4.430488868416621
0.10627095722878349,1.5891307782474888,-4.427178605245624
0.10688170985653511,1.5894320283968137,-4.4238671310818996
0.10749246248428675,1.5897293324394015,-4.420559198966495
0.10810321511203837,1.590022607204377,-4.417259149568329
0.10871396773979,1.5903117694676956,-4.413970908509513
0.10932472036754162,1.5905967363983435,-4.410697984776385
0.10993547299529326,1.5908774259898508,-4.407443470214459
0.11054622562304489,1.5911537574764292,-4.4042100400998105
0.11115697825079653,1.5914256517330576,-4.400999954778038
0.11176773087854816,1.5916930316589313,-4.397815062357509
0.11237848350629977,1.5919558225436858,-4.3946568024426
0.1129892361340514,1.59221395241591,-4.3915262108878155
0.11359998876180304,1.5924673523734647,-4.388423925551913
0.11421074138955467,1.5927159568952114,-4.385350193028346
0.11482149401730629,1.59295970413378,-4.3823048763259065
0.11543224664505793,1.5931985361890708,-4.379287463469738
0.11604299927280955,1.5934323993622277,-4.376297076992908
0.11665375190056118,1.5936612443898832,-4.373332484283401
0.1172645045283128,1.5938850266585012,-4.370392108751565
0.11787525715606444,1.594103706398736,-4.367474041780023
0.11848600978381607,1.5943172488597221,-4.364576055416266
0.1190967624115677,1.5945256244633181,-4.361695615765614
0.11970751503931934,1.5947288089383214,-4.3588298970423285
0.12031826766707095,1.5949267834347611,-4.3559757962329755
0.12092902029482258,1.5951195346184064,-4.353129948326356
0.12153977292257422,1.5953070547456654,-4.350288742062122
0.12215052555032585,1.5954893417191178,-4.347448336149671
0.12276127817807747,1.595666399123951,-4.344604675907291
0.1233720308058291,1.595838236245618,-4.341753510271481
0.12398278343358073,1.5960048680690821,-4.338890409125382
0.12459353606133236,1.5961663152600383,-4.336010780894225
0.125204288689084,1.596322604128574,-4.3331098903562975
0.1258150413168356,1.5964737665757165,-4.3301828766170205
0.12642579394458725,1.596619840023407,-4.327224771194252
0.12703654657233887,1.596760867328428,-4.324230516162094
0.12764729920009052,1.596896896680881,-4.321194982302634
0.12825805182784214,1.597027981487803,-4.318112987212292
0.12886880445559376,1.5971541802425777,-4.314979313314144
0.1294795570833454,1.597275556380792,-4.311788725724651
0.13009030971109703,1.59739217812323,-4.30853598992616
0.13070106233884865,1.5975041183067125,-4.305215889196607
0.13131181496660027,1.5976114542035065,-4.301823241749769
0.13192256759435192,1.59771426733006,-4.2983529175405355
0.13253332022210354,1.597812643245813,-4.2947998546892086
0.1331440728498552,1.597906671342863,-4.291159075484662
0.13375482547760678,1.5979964446272723,-4.287425701921896
0.13436557810535843,1.5980820594928062,-4.283594970738147
0.13497633073311005,1.5981636154879024,-4.279662247906159
0.1355870833608617,1.5982412150766776,-4.275623042552385
0.13619783598861332,1.5983149633947744,-4.271473020263945
0.13680858861636494,1.59838496800085,-4.267208015754691
0.13741934124411656,1.5984513386245136,-4.262824044859744
0.13803009387186818,1.5985141869115078,-4.258317315832528
0.13864084649961983,1.5985736261669172,-4.253684239919391
0.13925159912737145,1.5986297710971957,-4.2489214411888865
0.1398623517551231,1.5986827375517736,-4.244025765597079
0.14047310438287472,1.598732642264999,-4.23899428927063
0.14108385701062634,1.5987796025991665,-4.233824325993211
0.141694609638378,1.598823736289341,-4.228513433882694
0.1423053622661296,1.5988651611906934,-4.223059421249725
0.14291611489388123,1.5989039950290314,-4.21746035162992
0.14352686752163288,1.5989403551551857,-4.211714547985319
0.1441376201493845,1.598974358303892,-4.205820596072755
0.14474837277713615,1.599006120357788,-4.199777346979398
0.14535912540488774,1.599035756117107,-4.193583918828126
0.14596987803263936,1.5990633790756408,-4.187239697658304
0.146580630660391,1.5990891012034878,-4.180744337488789
0.14719138328814263,1.5991130327371121,-4.174097759573991
0.14780213591589428,1.5991352819771651,-4.167300150864103
0.1484128885436459,1.5991559550945287,-4.160351961684506
0.14902364117139752,1.5991751559449823,-4.153253902651002
0.14963439379914917,1.5991929858928728,-4.146006940839197
0.1502451464269008,1.5992095436441311,-4.138612295227808
0.15085589905465244,1.5992249250889565,-4.1310714314399455
0.15146665168240406,1.5992392231544323,-4.1233860558052315
0.15207740431015568,1.599252527667332,-4.115558108769522
0.15268815693790733,1.5992649252273197,-4.107589757678909
0.15329890956565892,1.5992764990907233,-4.099483388968146
0.15390966219341054,1.5992873290650285,-4.09124159978325
0.1545204148211622,1.5992974914141993,-4.082867189069589
0.1551311674489138,1.599307058774908,-4.0743631481599945
0.15574192007666546,1.5993161000837224,-4.065732650894431
0.15635267270441708,1.5993246805152541,-4.056979043308785
0.1569634253321687,1.5993328614312652,-4.048105832926027
0.15757417795992035,1.5993407003406732,-4.039116677688245
0.15818493058767197,1.5993482508703885,-4.030015374565192
0.15879568321542362,1.599355562746862,-4.020805847877622
0.15940643584317524,1.5993626817882265,-4.011492137373083
0.16001718847092686,1.599369649906859,-4.002078386092166
0.1606279410986785,1.5993765051221753,-3.992568828063791
0.1612386937264301,1.599383281583451,-3.9829677758676802
0.16184944635418172,1.5993900096024258,-3.9732796081024344
0.16246019898193337,1.5993967156954332,-3.9635087567965788
0.163070951609685,1.599403422634778,-3.9536596948012894
0.16368170423743664,1.5994101495090491,-3.943736923201436
0.16429245686518826,1.5994169117920607,-3.9337449587820714
0.16490320949293988,1.5994237214200668,-3.9236883215861793
0.16551396212069153,1.5994305868769123,-3.9135715226000243
0.16612471474844315,1.5994375132867256,-3.9033990516000436
0.1667354673761948,1.5994445025137913,-3.8931753651952827
0.16734622000394642,1.5994515532691873,-3.8829048750989896
0.16795697263169804,1.599458661223787,-3.8725919366603594
0.16856772525944969,1.599465819127198,-3.8622408376876605
0.16917847788720128,1.599473016932221,-3.8518557875921062
0.16978923051495293,1.5994802419243792,-3.841440906881607
0.17039998314270455,1.5994874788560858,-3.8310002170298083
0.17101073577045617,1.5994947100849972,-3.820537630747938
0.17162148839820782,1.5995019157161032,-3.8100569426826936
0.17223224102595944,1.5995090737471016,-3.7995618205626194
0.17284299365371106,1.5995161602165988,-3.7890557968151772
0.1734537462814627,1.5995231493546842,-3.7785422606738996
0.17406449890921433,1.5995300137354291,-3.7680244507928005
0.17467525153696598,1.5995367244308492,-3.7575054483862464
0.1752860041647176,1.5995432511658945,-3.746988170907577
0.17589675679246922,1.5995495624740106,-3.7364753662803376
0.17650750942022086,1.599555625852851,-3.7259696076933357
0.17711826204797246,1.5995614079196903,-3.7154732889695836
0.1777290146757241,1.599566874566129,-3.7049886205167852
0.17833976730347573,1.5995719911116704,-3.694517625865689
0.17895051993122735,1.5995767224557649,-3.6840621388012185
0.179561272558979,1.599581033227923,-3.67362380108863
0.18017202518673062,1.5995848879355246,-3.663204060796577
0.18078277781448224,1.5995882511089354,-3.6528041712157315
0.18139353044223389,1.5995910874435926,-3.642425190371194
0.1820042830699855,1.5995933619386973,-3.6320679811244942
0.18261503569773715,1.5995950400321888,-3.621733211859764
0.18322578832548878,1.5995960877316915,-3.6114213577468712
0.1838365409532404,1.5995964717411209,-3.601132702572231
0.18444729358099204,1.599596159582675,-3.590867341127947
0.18505804620874364,1.5995951197139366,-3.5806251821459165
0.18566879883649529,1.5995933216398392,-3.5704059517654976
0.1862795514642469,1.5995907360192618,-3.560209197517524
0.18689030409199853,1.5995873347660332,-3.5500342928113646
0.18750105671975018,1.5995830911441569,-3.5398804419045184
0.1881118093475018,1.599577979857068,-3.5297466853386124
0.18872256197525342,1.599571977130766,-3.5196319058203605
0.18933331460300507,1.5995650607906862,-3.5095348345261876
0.18994406723075669,1.5995572103321778,-3.4994540578096576
0.19055481985850833,1.5995484069844925,-3.4893880242873427
0.19116557248625995,1.5995386337682003,-3.4793350522788025
0.19177632511401158,1.5995278755459625,-3.46929333757694
0.19238707774176322,1.5995161190666203,-3.459260961521536
0.19299783036951482,1.599503353002572,-3.4492358993498216
0.19360858299726647,1.5994895679804322,-3.4392160287973215
0.19421933562501809,1.5994747566049818,-3.4291991389208025
0.1948300882527697,1.5994589134764436,-3.4191829391147794
0.19544084088052135,1.5994420352011283,-3.4091650682937193
0.19605159350827298,1.5994241203955175,-3.3991431042103137
0.19666234613602462,1.5994051696838747,-3.389114572881033
0.19727309876377624,1.599385185689476,-3.3790769580892923
0.19788385139152787,1.5993641730195869,-3.3690277109372926
0.1984946040192795,1.599342138244318,-3.358964259416793
0.19910535664703113,1.5993190898695082,-3.3488840179702013
0.19971610927478275,1.599295038303808,-3.33878439701206
0.20032686190253438,1.599269995820134,-3.3286628123835946
0.200937614530286,1.5992439765116997,-3.318516694709958
0.20154836715803764,1.5992169962428242,-3.3083434986351805
0.20215911978578927,1.5991890725947437,-3.2981407119046833
0.20276987241354089,1.5991602248066548,-3.2879058642706926
0.20338062504129253,1.5991304737122365,-3.2776365361934996
0.20399137766904415,1.5990998416719062,-3.267330367314284
0.2046021302967958,1.599068352501068,-3.2569850646742213
0.20521288292454742,1.5990360313946315,-3.2465984106574792
0.20582363555229904,1.5990029048480776,-3.236168270635342
0.2064343881800507,1.5989690005753612,-3.2256926002894324
0.2070451408078023,1.5989343474239353,-3.2151694525960335
0.2076558934355539,1.598898975287208,-3.2045969844497653
0.20826664606330555,1.59886291501472,-3.19397346291093
0.20887739869105718,1.5988261983203549,-3.183297271059408
0.20948815131880882,1.5987888576888896,-3.1725669134399777
