frequency,refractiveIndex,absorption
0.0006107526277516292,5.024187446774211,0.46581206321874635
0.0012215052555032584,3.8123899643954324,1.088817348753614
0.0018322578832548875,3.0715064900964726,1.5676521946439825
0.002443010511006517,2.6004735182449554,1.9262957906958207
0.003053763138758146,2.281745166807083,2.1974032929201504
0.003664515766509775,2.055568667629596,2.4033902285222695
0.004275268394261404,1.8895358817479233,2.5595283945629026
0.004886021022013034,1.764719709411821,2.6767718678582035
0.005496773649764663,1.6693204203739058,2.7634232252020134
0.006107526277516292,1.5955559978461606,2.826058775812635
0.006718278905267922,1.538042184070322,2.870026938741213
0.00732903153301955,1.492905277922487,2.899710225944303
0.00793978416077118,1.4572757805916274,2.918669510797367
0.008550536788522809,1.428986825006666,2.929743223651901
0.009161289416274438,1.4063845617388837,2.9351391919140264
0.009772042044026067,1.3882007930180962,2.93653126826329
0.010382794671777697,1.3734617205367694,2.935158198733337
0.010993547299529326,1.3614194264217314,2.9319172863028835
0.011604299927280955,1.351499173781459,2.927446547643367
0.012215052555032585,1.3432586216073028,2.9221923136638797
0.012825805182784214,1.3363563700694903,2.916462162620918
0.013436557810535843,1.330527868602395,2.910464858219092
0.014047310438287471,1.3255670873445835,2.9043396763302507
0.0146580630660391,1.321312642409731,2.8981775243809453
0.015268815693790731,1.3176373213896118,2.8920359421055917
0.01587956832154236,1.3144401803515566,2.885949653536153
0.01649032094929399,1.3116405734122494,2.8799379385484056
0.017101073577045618,1.3091736298331977,2.8740097560593316
0.01771182620479725,1.306986814315335,2.8681672893199037
0.018322578832548876,1.3050372986778356,2.862408388887827
0.018933331460300507,1.303289942828047,2.856728247695861
0.019544084088052135,1.301715734913267,2.851120542135897
0.020154836715803762,1.30029057905348,2.845578202318887
0.020765589343555393,1.2989943474881485,2.8400939251734427
0.02137634197130702,1.2978101349483775,2.834660509544814
0.021987094599058652,1.296723668558453,2.829271068443972
0.02259784722681028,1.2957228380387924,2.823919156885812
0.02320859985456191,1.2947973194991587,2.818598842117361
0.023819352482313542,1.2939382724612867,2.813304734920369
0.02443010511006517,1.2931380945062292,2.8080319950035393
0.025040857737816797,1.2923902215211382,2.802776319533531
0.025651610365568428,1.291688964227627,2.797533921075497
0.026262362993320056,1.2910293737323228,2.7923014992655952
0.026873115621071687,1.2904071304135376,2.7870762091709986
0.027483868248823314,1.289818451666758,2.7818556283344242
0.028094620876574942,1.2892600149652687,2.7766377238288285
0.028705373504326573,1.2887288934169996,2.771420820179021
0.0293161261320782,1.2882225015642323,2.7662035686809254
0.029926878759829835,1.2877385496162668,2.760984918423856
0.030537631387581463,1.2872750046546382,2.755764089167317
0.03114838401533309,1.2868300576271567,2.7505405461197916
0.03175913664308472,1.2864020951671467,2.745313976598616
0.03236988927083635,1.2859896754501283,2.740084268506128
0.03298064189858798,1.2855915074413315,2.734851490530893
0.03359139452633961,1.2852064330011796,2.729615873968049
0.034202147154091235,1.2848334114079678,2.7243777960465496
0.03481289978184286,1.2844715059317542,2.7191377646498665
0.0354236524095945,1.2841198721545182,2.713896404319481
0.036034405037346125,1.2837777477816152,2.7086544434351754
0.03664515766509775,1.2834444437306218,2.70341270247237
0.03725591029284938,1.2831193363175322,2.6981720832434095
0.037866662920601014,1.2828018603883138,2.69293355903694
0.038477415548352635,1.2824915032670938,2.6876981655763315
0.03908816817610427,1.2821877994116457,2.682466992725014
0.039698920803855904,1.2818903256830527,2.6772411768728412
0.040309673431607525,1.2815986971500037,2.672021893943781
0.04092042605935916,1.2813125633596023,2.6668103529706104
0.04153117868711079,1.2810316050161965,2.6616077901874866
0.04214193131486242,1.2807555310178769,2.6564154635959123
0.04275268394261404,1.280484075807196,2.651234647963801
0.04336343657036568,1.2802169969985204,2.646066630221271
0.043974189198117304,1.2799540732494392,2.640912705220157
0.04458494182586893,1.2796951023479088,2.6357741718274688
0.04519569445362056,1.2794398994904816,2.630652329325777
0.045806447081372194,1.279188295730101,2.6255484740960173
0.04641719970912382,1.2789401365746462,2.6204638965606004
0.04702795233687545,1.2786952807197385,2.6153998783666115
0.047638704964627084,1.2784535989013335,2.6103576897908516
0.048249457592378704,1.278214972855367,2.605338587350057
0.04886021022013034,1.27797929437323,2.600343811601129
0.049470962847881966,1.2777464644431682,2.5953745851175722
0.050081715475633594,1.2775163924688402,2.590432110629502
0.05069246810338522,1.2772889955572722,2.5855175693157073
0.051303220731136856,1.2770641978693178,2.580632119237201
0.05191397335888848,1.2768419300265008,2.5757768939025354
0.05252472598664011,1.276622128568783,2.5709530009560755
0.053135478614391746,1.2764047354583976,2.5661615209809914
0.05374623124214337,1.2761896976254021,2.561403506409471
0.054356983869895,1.2759769665510676,2.5566799805332328
0.05496773649764663,1.2757664978856216,2.551991936607914
0.05557848912539826,1.2755582510972234,2.547340337045449
0.056189241753149884,1.2753521891493678,2.542726112688917
0.05679999438090152,1.275148278204193,2.5381501621648344
0.057410747008653146,1.2749464873494212,2.5336133513081402
0.05802149963640477,1.2747467883468782,2.5291165126555493
0.0586322522641564,1.2745491554007469,2.524660445003137
0.059243004891908035,1.274353564943875,2.520245913024427
0.05985375751965967,1.2741599954406244,2.5158736469454306
0.06046451014741129,1.2739684272048868,2.511544342273317
0.061075262775162925,1.2737788422320209,2.507258659575694
0.06168601540291455,1.2735912240435754,2.5030172243075732
0.06229676803066618,1.2734055575437713,2.498820626683342
0.0629075206584178,1.273221828886802,2.4946694215912366
0.06351827328616944,1.2730400253540992,2.4905641285479563
0.06412902591392107,1.2728601352407822,2.486505231691183
0.0647397785416727,1.2726821477505799,2.4824931798079644
0.06535053116942433,1.2725060528985717,2.478528386397
0.06596128379717596,1.2723318414211549,2.4746112297629796
0.0665720364249276,1.2721595046926883,2.470742053141318
0.06718278905267921,1.2719890346483165,2.4669211648515894
0.06779354168043085,1.2718204237125097,2.4631488384782405
0.06840429430818247,1.2716536647329024,2.459425313077064
0.06901504693593409,1.2714887509190413,2.455750793406167
0.06962579956368573,1.2713256757856852,2.452125450180141
0.07023655219143736,1.271164433100329,2.4485494203462226
0.070847304819189,1.2710050168346523,2.4450228073814104
0.07145805744694061,1.2708474211196084,2.4415456816093926
0.07206881007469225,1.2706916402039037,2.4381180805363623
0.07267956270244387,1.2705376684156213,2.4347400092047584
0.0732903153301955,1.27038550012678,2.431411440564107
0.07390106795794714,1.2702351297206167,2.4281323158580506
0.07451182058569876,1.2700865515614121,2.4249025450268826
0.0751225732134504,1.269939759966681,2.4217220071248144
0.07573332584120203,1.2697947491815718,2.4185905507512775
0.07634407846895366,1.2696515133553212,2.4155079944956404
0.07695483109670527,1.269510046519632,2.4124741273947254
0.0775655837244569,1.269370342568843,2.409488709402525
0.07817633635220854,1.2692323952417723,2.406551471871616
0.07878708897996017,1.269096198105128,2.4036621180457227
0.07939784160771181,1.2689617445383792,2.400820323562992
0.08000859423546343,1.2688290277199978,2.398025736969455
0.08061934686321505,1.268698040614981,2.3952779802423207
0.08123009949096668,1.268568775963571,2.39257664932266
0.08184085211871832,1.2684412262711002,2.389921314657042
0.08245160474646994,1.268315383798889,2.387311521747871
0.08306235737422157,1.2681912405561309,2.3847467917119753
0.08367311000197321,1.268068788292705,2.3822266218471166
0.08428386262972484,1.2679480184928587,2.379750486206207
0.08489461525747646,1.267828922369707,2.3773178361787655
0.08550536788522808,1.267711490860502,2.3749281010794863
0.08611612051297972,1.267595714622625,2.3725806887434966
0.08672687314073135,1.2674815840302587,2.37027498612814
0.08733762576848299,1.2673690891717018,2.368010359920942
0.08794837839623461,1.267258219847287,2.365786157153541
0.08855913102398623,1.2671489655678716,2.3636017058213508
0.08916988365173786,1.2670413155538631,2.3614563155086303
0.0897806362794895,1.2669352587347584,2.3593492780188194
0.09039138890724112,1.26683078374916,2.357279868009816
0.09100214153499275,1.26672787894525,2.3552473436340158
0.09161289416274439,1.2666265323816965,2.3532509471828447
0.09222364679049602,1.2665267318289675,2.351289905735538
0.09283439941824764,1.2664284647710335,2.3493634318119936
0.09344515204599926,1.2663317184074403,2.347470724029349
0.0940559046737509,1.2662364796557308,2.345610967762174
0.09466665730150253,1.266142735154203,2.34378333580592
0.09527740992925417,1.266050471264982,2.341986989043438
0.09588816255700579,1.2659596740774002,2.340221077114321
0.09649891518475741,1.2658703294116616,2.338484739086765
0.09710966781250904,1.2657824228227852,2.3367771041317527
0.09772042044026068,1.2656959396048117,2.335097292199228
0.09833117306801231,1.2656108647952609,2.333444414696045
0.09894192569576393,1.2655271831798325,2.33181757516536
0.09955267832351557,1.265444879297337,2.330215869967247
0.10016343095126719,1.265363937444848,2.328638388960154
0.10077418357901882,1.2652843416830661,2.3270842161830005
0.10138493620677044,1.265206075841889,2.3255524305375164
0.10199568883452208,1.265129123526172,2.3240421064705785
0.10260644146227371,1.2650534681216807,2.322552314656162
0.10321719409002535,1.2649790928012203,2.3210821226766396
0.10382794671777695,1.2649059805309384,2.3196305957030128
0.10443869934552859,1.2648341140767916,2.318196797173807
0.10504945197328022,1.2647634760111728,2.316779789472207
0.10566020460103186,1.2646940487196883,2.315378634601129
0.10627095722878349,1.264625814408082,2.3139923948558065
0.10688170985653511,1.2645587551092958,2.3126201334935366
0.10749246248428675,1.2644928526906671,2.3112609154002417
0.10810321511203837,1.264428088861249,2.3099138077533534
0.10871396773979,1.2643644451792528,2.3085778806807293
0.10932472036754162,1.264301903059608,2.3072522079151367
0.10993547299529326,1.2642404437816261,2.3059358674439023
0.11054622562304489,1.2641800484967713,2.304627942153323
0.11115697825079653,1.2641206982365272,2.3033275204674144
0.11176773087854816,1.2640623739203547,2.3020336969805704
0.11237848350629977,1.2640050563637362,2.300745573083692
0.1129892361340514,1.2639487262862983,2.2994622575833885
0.11359998876180304,1.2638933643200079,2.2981828673137894
0.11421074138955467,1.2638389510174382,2.2969065277405143
0.11482149401730629,1.263785466860093,2.2956323735564164
0.11543224664505793,1.2637328922667899,2.294359549268625
0.11604299927280955,1.26368120760209,2.293087209776431
0.11665375190056118,1.2636303931847737,2.291814520939651
0.1172645045283128,1.26358042929635,2.2905406601369216
0.11787525715606444,1.2635312961896004,2.2892648168136147
0.11848600978381607,1.263482974097144,2.287986193018866
0.1190967624115677,1.2634354432400223,2.2867040039313005
0.11970751503931934,1.263388683836294,2.28541747837306
0.12031826766707095,1.2633426761096356,2.2841258593116933
0.12092902029482258,1.2632974002979398,2.282828404349525
0.12153977292257422,1.263252836661905,2.2815243862000814
0.12215052555032585,1.2632089654936105,2.2802130931511786
0.12276127817807747,1.2631657671250693,2.2788938295143364
0.1233720308058291,1.2631232219367512,2.2775659160600497
0.12398278343358073,1.2630813103660719,2.276228690438674
0.12459353606133236,1.2630400129158381,2.274881507586493
0.125204288689084,1.2629993101626449,2.2735237401166284
0.1258150413168356,1.262959182765216,2.2721547786945275
0.12642579394458725,1.2629196114726806,2.2707740323976613
0.12703654657233887,1.2628805771327816,2.2693809290591727
0.12764729920009052,1.2628420607000062,2.2679749155951483
0.12825805182784214,1.262804043243634,2.2665554583153025
0.12886880445559376,1.2627665059556936,2.265122043216818
0.1294795570833454,1.2627294301588234,2.26367417626106
0.13009030971109703,1.2626927973140294,2.2622113836330127
0.13070106233884865,1.262656589028331,2.260733211983228
0.13131181496660027,1.2626207870622927,2.2592392286520715
0.13192256759435192,1.2625853733374317,2.2577290218762034
0.13253332022210354,1.2625503299434973,2.256202200977033
0.1331440728498552,1.2625156391456132,2.2546583965311693
0.13375482547760678,1.2624812833912822,2.253097260522634
0.13436557810535843,1.2624472453172404,2.2515184664769112
0.13497633073311005,1.2624135077561613,2.2499217095766313
0.1355870833608617,1.2623800537432,2.24830670675901
0.13619783598861332,1.2623468665223758,2.2466731967949074
0.13680858861636494,1.2623139295527834,2.245020940349594
0.13741934124411656,1.2622812265146341,2.243349720025239
0.13803009387186818,1.2622487413151153,2.2416593403851817
0.13864084649961983,1.2622164580940685,2.2399496279600517
0.13925159912737145,1.2621843612294807,2.238220431235865
0.1398623517551231,1.2621524353427827,2.2364716206241932
0.14047310438287472,1.262120665303954,2.234703088414571
0.14108385701062634,1.2620890362364277,2.232914748709271
0.141694609638378,1.262057533521793,2.231106537340702
0.1423053622661296,1.2620261428042927,2.229278411771548
0.14291611489388123,1.2619948499951135,2.227430350977939
0.14352686752163288,1.2619636412764628,2.2255623553158883
0.1441376201493845,1.2619325031054351,2.2236744463712212
0.14474837277713615,1.2619014222176617,2.22176666679335
0.14535912540488774,1.261870385630743,2.219839080113123
0.14596987803263936,1.2618393806474637,2.2178917705451084
0.146580630660391,1.2618083948587866,2.2159248427746587
0.14719138328814263,1.2617774161466264,2.2139384217300675
0.14780213591589428,1.2617464326864027,2.211932652340211
0.1484128885436459,1.2617154329493696,2.2099076992780615
0.14902364117139752,1.2616844057047243,2.207863746690452
0.14963439379914917,1.2616533400214935,2.2058009979145234
0.1502451464269008,1.2616222252701996,2.2037196751812322
0.15085589905465244,1.2615910511243031,2.2016200193064055
0.15146665168240406,1.2615598075614294,2.1995022893697502
0.15207740431015568,1.2615284848643724,2.1973667623822912
0.15268815693790733,1.2614970736218853,2.1952137329426615
0.15329890956565892,1.2614655647292534,2.1930435128827765
0.15390966219341054,1.2614339493886533,2.190856430903308
0.1545204148211622,1.2614022191093024,2.188652832199489
0.1551311674489138,1.2613703657073987,2.186433078077691
0.15574192007666546,1.2613383813058547,2.1841975455633236
0.15635267270441708,1.2613062583338273,2.181946627000486
0.1569634253321687,1.2612739895260483,2.179680729643948
0.15757417795992035,1.2612415679219586,2.1774002752438752
0.15818493058767197,1.261208986864647,2.175105699623872
0.15879568321542362,1.2611762399996016,2.1727974522528166
0.15940643584317524,1.2611433212732734,2.1704759958109645
0.16001718847092686,1.2611102249314596,2.1681418057508868
0.1606279410986785,1.2610769455175077,2.165795369853648
0.1612386937264301,1.2610434778703477,2.1634371877808265
0.16184944635418172,1.261009817122354,2.1610677706227537
0.16246019898193337,1.2609759586970444,2.1586876404435658
0.163070951609685,1.2609418983066178,2.156297329823469
0.16368170423743664,1.260907631949339,2.1538973813987243
0.16429245686518826,1.260873155906772,2.1514883473998423
0.16490320949293988,1.2608384667408687,2.149070789188401
0.16551396212069153,1.2608035612909183,2.1466452767929725
0.16612471474844315,1.2607684366703615,2.144212388444612
0.1667354673761948,1.260733090263476,2.1417727101123036
0.16734622000394642,1.260697519721936,2.1393268350388457
0.16795697263169804,1.2606617229612551,2.136875363277536
0.16856772525944969,1.260625698157113,2.13441890123013
0.16917847788720128,1.2605894437415757,2.131958061186387
0.16978923051495293,1.2605529583992126,2.1294934608656733
0.17039998314270455,1.2605162410631148,2.1270257229609273
0.17101073577045617,1.260479290910822,2.1245554746854176
0.17162148839820782,1.2604421073601622,2.122083347322558
0.17223224102595944,1.26040469006501,2.119609975779226
0.17284299365371106,1.2603670389109685,2.1171359981428006
0.1734537462814627,1.2603291540109784,2.11466205524233
0.17406449890921433,1.260291035700865,2.112188790214076
0.17467525153696598,1.26025268453482,2.109716848071714
0.1752860041647176,1.26021410128083,2.107246875281535
0.17589675679246922,1.2601752869160538,2.104779519342833
0.17650750942022086,1.260136242622155,2.1023154283737773
0.17711826204797246,1.2600969697805902,2.0998552507029937
0.1777290146757241,1.2600574699678655,2.097399634467093
0.17833976730347573,1.260017744950759,2.094949227214329
0.17895051993122735,1.2599777966815169,2.092504675514626
0.179561272558979,1.259937627293027,2.0900666245761377
0.18017202518673062,1.259897239093975,2.087635717868521
0.18078277781448224,1.2598566345639879,2.0852125967530943
0.18139353044223389,1.2598158163487645,2.0827979001200214
0.1820042830699855,1.259774787255206,2.0803922640326733
0.18261503569773715,1.2597335502465412,2.0779963213792794
0.18322578832548878,1.2596921084374546,2.0756107015320024
0.1838365409532404,1.2596504650892233,2.073236030013546
0.18444729358099204,1.2596086236048616,2.070872928171345
0.18505804620874364,1.2595665875242796,2.06852201285951
0.18566879883649529,1.2595243605194597,2.0661838961284977
0.1862795514642469,1.2594819463896505,2.0638591849226464
0.18689030409199853,1.2594393490565883,2.061548480785596
0.18750105671975018,1.2593965725597407,2.0592523795736613
0.1881118093475018,1.2593536210515823,2.0569714711771487
0.18872256197525342,1.2593104987929007,2.0547063392496954
0.18933331460300507,1.2592672101481384,2.0524575609456144
0.18994406723075669,1.2592237595807707,2.0502257066652625
0.19055481985850833,1.259180151648725,2.048011339808448
0.19116557248625995,1.2591363909998405,2.045815016535845
0.19177632511401158,1.2590924823673721,2.043637285538399
0.19238707774176322,1.2590484305655423,2.041478687814769
0.19299783036951482,1.2590042404851387,2.0393397564566627
0.19360858299726647,1.2589599170891639,2.0372210164421425
0.19421933562501809,1.2589154654085355,2.035122984436784
0.1948300882527697,1.2588708905378398,2.0330461686026995
0.19544084088052135,1.2588261976311423,2.0309910684153207
0.19605159350827298,1.2587813918978508,2.028958174487926
0.19666234613602462,1.2587364785986395,2.02694796840384
0.19727309876377624,1.2586914630414305,2.024960922556212
0.19788385139152787,1.2586463505774352,2.022997499995355
0.1984946040192795,1.2586011465972566,2.021058154283531
0.19910535664703113,1.258555856527054,2.019143329357106
0.19971610927478275,1.25851048582477,2.0172534593960214
0.20032686190253438,1.2584650399764208,2.0153889687004756
0.200937614530286,1.258419524492451,2.01355027157472
0.20154836715803764,1.2583739449041524,2.011737772217923
0.20215911978578927,1.2583283067601492,2.0099518646219443
0.20276987241354089,1.2582826156229463,2.0081929324759886
0.20338062504129253,1.2582368770655472,2.006461349078004
0.20399137766904415,1.2581910966681344,2.0047574772527463
0.2046021302967958,1.258145280014819,2.0030816692763813
0.20521288292454742,1.2580994326904542,2.0014342668075833
0.20582363555229904,1.2580535602775185,1.9998156008249512
0.2064343881800507,1.258007668353062,1.9982259915707143
0.2070451408078023,1.2579617624857233,1.9966657485005588
0.2076558934355539,1.257915848232809,1.9951351702395321
0.20826664606330555,1.2578699311374417,1.9936345445438746
0.20887739869105718,1.257824016725774,1.9921641482686936
0.20948815131880882,1.2577781105042678,1.9907242473413829
0.21009890394656044,1.25773221795704,1.9893150967406787
0.21070965657431207,1.2576863445432724,1.9879369404812202
0.2113204092020637,1.2576404956946874,1.9865900116035815
0.21193116182981533,1.2575946768130883,1.9852745321695742
0.21254191445756698,1.2575488932679628,1.9839907132628292
0.2131526670853186,1.257503150394151,1.9827387549944477
