frequency,refractiveIndex,absorption
0.0006107526277516292,4.8171331608327534,0.43206995394674047
0.0012215052555032584,3.6859114322991164,1.0279454415054468
0.0018322578832548875,2.9787608734659154,1.4920684409731864
0.002443010511006517,2.5247622741049836,1.8411519015277344
0.003053763138758146,2.216017028217537,2.105121358494687
0.003664515766509775,1.99634828495348,2.305241499446845
0.004275268394261404,1.834920070248202,2.4562332150148163
0.004886021022013034,1.7135886193874277,2.5687785828367957
0.005496773649764663,1.6209781792878162,2.651061971613039
0.006107526277516292,1.5495463684828348,2.709633485165774
0.006718278905267922,1.4940453929881452,2.7498663771893663
0.00732903153301955,1.4506779469431226,2.7761866733072704
0.00793978416077118,1.416616718651109,2.79219312108276
0.008550536788522809,1.3897192176535065,2.8007422457139057
0.009161289416274438,1.3683481517395402,2.804036308614568
0.009772042044026067,1.3512493977408753,2.8037234995203035
0.010382794671777697,1.337462965383127,2.8010038049606916
0.010993547299529326,1.32625492910918,2.7967298227600303
0.011604299927280955,1.3170644130676226,2.7914944656846656
0.012215052555032585,1.3094623152454297,2.7857020682745985
0.012825805182784214,1.3031194561480315,2.779623079980182
0.013436557810535843,1.2977822593874118,2.7734345465029913
0.014047310438287471,1.2932543487200752,2.7672492562107096
0.0146580630660391,1.2893827071949395,2.76113631818834
0.015268815693790731,1.2860473005401016,2.7551354908786205
0.01587956832154236,1.2831533023288386,2.7492670606380822
0.01649032094929399,1.2806252597711434,2.743538601686765
0.017101073577045618,1.2784027020326583,2.73794957341564
0.01771182620479725,1.2764368200887366,2.7324944282177253
0.018322578832548876,1.2746879436485339,2.727164698059802
0.018933331460300507,1.2731236127396859,2.721950382993468
0.019544084088052135,1.2717170947585175,2.716840863712276
0.020154836715803762,1.2704462368538203,2.711825490427385
0.020765589343555393,1.269292572111602,2.7068939523413755
0.02137634197130702,1.2682406189430244,2.7020364991017503
0.021987094599058652,1.2672773284269199,2.6972440630833554
0.02259784722681028,1.2663916456448985,2.692508315912071
0.02320859985456191,1.2655741593783199,2.687821682057337
0.023819352482313542,1.26481682071383,2.6831773250546247
0.02443010511006517,1.2641127157072791,2.678569116925571
0.025040857737816797,1.26345588070385,2.67399159792918
0.025651610365568428,1.2628411515090467,2.6694399314152504
0.026262362993320056,1.2622640395717488,2.664909856927404
0.026873115621071687,1.2617206298380887,2.660397643588915
0.027483868248823314,1.2612074960815982,2.655900045042773
0.028094620876574942,1.2607216303979567,2.65141425669934
0.028705373504326573,1.2602603842360682,2.6469378756956967
0.0293161261320782,1.2598214188690096,2.6424688637383125
0.029926878759829835,1.259402663624375,2.6380055128485798
0.030537631387581463,1.259002280520581,2.6335464139345506
0.03114838401533309,1.258618634214048,2.6290904280535776
0.03175913664308472,1.2582502663672719,2.624636660198036
0.03236988927083635,1.2578958737113677,2.620184435421006
0.03298064189858798,1.2575542892076812,2.6157332771148525
0.03359139452633961,1.2572244658185066,2.6112828872592164
0.034202147154091235,1.2569054624821274,2.606833128462847
0.03481289978184286,1.2565964319565186,2.602384007634459
0.0354236524095945,1.2562966102523458,2.5979356611296214
0.036034405037346125,1.256005307421945,2.593488341233187
0.03664515766509775,1.255721899508743,2.5890424038489863
0.03725591029284938,1.2554458214927169,2.5845982972803383
0.037866662920601014,1.2551765610932233,2.58015655199607
0.038477415548352635,1.2549136533118608,2.575717771287062
0.03908816817610427,1.2546566756158108,2.5712826227278383
0.039698920803855904,1.2544052436769146,2.566851830366419
0.040309673431607525,1.254159007594171,2.562426167573467
0.04092042605935916,1.2539176485377712,2.558006450488923
0.04153117868711079,1.2536808757615683,2.553593532010587
0.04214193131486242,1.253448423938314,2.5491882962750054
0.04275268394261404,1.2532200507782651,2.5447916535859743
0.04336343657036568,1.2529955348971253,2.5404045357506333
0.043974189198117304,1.2527746739038177,2.536027891787261
0.04458494182586893,1.2525572826824751,2.531662683972391
0.04519569445362056,1.2523431918463586,2.5273098841983273
0.045806447081372194,1.2521322463442588,2.522970470614821
0.04641719970912382,1.2519243042023886,2.5186454245314556
0.04702795233687545,1.251719235386892,2.5143357275594793
0.047638704964627084,1.251516920773905,2.5100423589739167
0.048249457592378704,1.2513172512156965,2.505766293278647
0.04886021022013034,1.2511201266927754,2.5015084979588025
0.049470962847881966,1.2509254555430434,2.4972699314061932
0.050081715475633594,1.250733153760109,2.4930515410049847
0.05069246810338522,1.2505431443537762,2.4888542613657982
0.051303220731136856,1.2503553567665189,2.484679012697641
0.05191397335888848,1.2501697263404339,2.480526699307918
0.05252472598664011,1.249986193829777,2.4763982082216853
0.053135478614391746,1.2498047049547187,2.472294407911992
0.05374623124214337,1.2496252099924212,2.4682161471339223
0.054356983869895,1.2494476634019536,2.4641642538555275
0.05496773649764663,1.24927202347993,2.460139534279418
0.05557848912539826,1.2490982520440694,2.4561427719492133
0.056189241753149884,1.2489263141421711,2.452174726935636
0.05679999438090152,1.2487561777842444,2.4482361350973116
0.057410747008653146,1.2485878136957647,2.4443277074118086
0.05802149963640477,1.2484211950902204,2.4404501293727265
0.0586322522641564,1.248256297459298,2.4366040604489836
0.059243004891908035,1.24809309837921,2.4327901336027065
0.05985375751965967,1.2479315773318176,2.4290089548624647
0.06046451014741129,1.2477717155393122,2.4252611029486295
0.061075262775162925,1.2476134958113583,2.4215471289481387
0.06168601540291455,1.2474569024036752,2.4178675560358496
0.06229676803066618,1.2473019208871499,2.4142228792400573
0.0629075206584178,1.2471485380266365,2.4106135652498013
0.06351827328616944,1.2469967416686922,2.407040052261808
0.06412902591392107,1.246846520637544,2.403502749864954
0.0647397785416727,1.2466978646386615,2.4000020389604386
0.06535053116942433,1.2465507641693503,2.3965382717157384
0.06596128379717596,1.2464052104358412,2.3931117715507506
0.0665720364249276,1.2462611952763847,2.389722833154509
0.06718278905267921,1.2461187110899106,2.3863717225309378
0.06779354168043085,1.245977750769841,2.3830586770722983
0.06840429430818247,1.2458383076426844,2.379783905658963
0.06901504693593409,1.2457003754110656,2.3765475887842857
0.06962579956368573,1.2455639481008727,2.3733498787033795
0.07023655219143736,1.2454290200122353,2.370190899604691
0.070847304819189,1.2452955856740582,2.3670707478033415
0.07145805744694061,1.245163639801866,2.363989491955205
0.07206881007469225,1.2450331772587326,2.3609471732908243
0.07267956270244387,1.244904193019081,2.3579438058682336
0.0732903153301955,1.2447766821351574,2.354979376843905
0.07390106795794714,1.244650639706005,2.3520538467609446
0.07451182058569876,1.244526060848765,2.3491671498538587
0.0751225732134504,1.2444029406721524,2.346319194369127
0.07573332584120203,1.2442812742519656,2.343509862900914
0.07634407846895366,1.2441610566084922,2.3407390127412606
0.07695483109670527,1.2440422826856943,2.3380064762441717
0.0775655837244569,1.2439249473320533,2.3353120612029863
0.07817633635220854,1.2438090452829742,2.3326555512404696
0.07878708897996017,1.243694571144643,2.3300367062111085
0.07939784160771181,1.2435815193792559,2.327455262615111
0.08000859423546343,1.243469884291526,2.3249109340235914
0.08061934686321505,1.2433596600163948,2.3224034115145122
0.08123009949096668,1.2432508405078706,2.3199323641189133
0.08184085211871832,1.2431434195289286,2.317497439277002
0.08245160474646994,1.2430373906424066,2.3150982633037085
0.08306235737422157,1.242932747202839,2.3127344418633005
0.08367311000197321,1.2428294823491706,2.3104055604526574
0.08428386262972484,1.2427275889983018,2.3081111848928857
0.08489461525747646,1.2426270598394165,2.305850861828843
0.08550536788522808,1.2425278873290433,2.3036241192362956
0.08611612051297972,1.2424300636868169,2.301430466936329
0.08672687314073135,1.2423335808918896,2.2992693971166953
0.08733762576848299,1.2422384306799679,2.2971403848597673
0.08794837839623461,1.242144604540928,2.2950428886767917
0.08855913102398623,1.2420520937169888,2.292976351048152
0.08916988365173786,1.2419608892014071,2.2909401989692784
0.0897806362794895,1.2418709817376654,2.2889338445019702
0.09039138890724112,1.2417823618191328,2.2869566853307854
0.09100214153499275,1.2416950196891652,2.2850081053242355
0.09161289416274439,1.2416089453416326,2.283087475100473
0.09222364679049602,1.2415241285218406,2.2811941525971853
0.09283439941824764,1.2414405587278363,2.2793274836454
0.09344515204599926,1.2413582252120712,2.2774868025469286
0.0940559046737509,1.2412771169834087,2.2756714326551455
0.09466665730150253,1.241197222809457,2.2738806869587966
0.09527740992925417,1.241118531219212,2.2721138686685656
0.09588816255700579,1.2410410305059951,2.2703702718061067
0.09649891518475741,1.2409647087306743,2.268649181795234
0.09710966781250904,1.2408895537251485,2.2669498760549542
0.09772042044026068,1.2408155530960923,2.265271624594081
0.09833117306801231,1.24074269422894,2.263613690607087
0.09894192569576393,1.2406709642921043,2.261975331070908
0.09955267832351557,1.2406003502414151,2.260355797342382
0.10016343095126719,1.2405308388247696,2.258754335755992
0.10077418357901882,1.240462416586983,2.2571701882216337
0.10138493620677044,1.2403950698748325,2.2556025928220316
0.10199568883452208,1.2403287848422835,2.2540507844095172
0.10260644146227371,1.2402635474558898,2.252513995201811
0.10321719409002535,1.2401993435003618,2.2509914553765276
0.10382794671777695,1.24013615858429,2.2494823936639503
0.10443869934552859,1.2400739781460222,2.2479860379378866
0.10504945197328022,1.2400127874596811,2.2465016158041107
0.10566020460103186,1.23995257164132,2.2450283551861547
0.10627095722878349,1.2398933156552057,2.2435654849080247
0.10688170985653511,1.2398350043202229,2.2421122352735203
0.10749246248428675,1.2397776223163972,2.2406678386417935
0.10810321511203837,1.2397211541915207,2.2392315299987517
0.10871396773979,1.2396655843678863,2.2378025475240078
0.10932472036754162,1.2396108971491124,2.2363801331529265
0.10993547299529326,1.2395570767270594,2.2349635331334796
0.11054622562304489,1.2395041071888295,2.233551998577488
0.11115697825079653,1.2394519725238426,2.2321447860058736
0.11176773087854816,1.239400656630983,2.2307411578876044
0.11237848350629977,1.2393501433258118,2.2293403831719174
0.1129892361340514,1.2393004163478363,2.2279417378134387
0.11359998876180304,1.2392514593678343,2.2265445052898856
0.11421074138955467,1.2392032559952226,2.225147977111919
0.11482149401730629,1.2391557897854684,2.223751453324823
0.11543224664505793,1.239109044247533,2.222354243001642
0.11604299927280955,1.2390630028513465,2.220955664727388
0.11665375190056118,1.2390176490353035,2.2195550470740066
0.1172645045283128,1.238972966213776,2.2181517290656867
0.11787525715606444,1.2389289377846378,2.2167450606342527
0.11848600978381607,1.2388855471367917,2.215334403064204
0.1190967624115677,1.2388427776576973,2.2139191294271368
0.11970751503931934,1.2388006127408917,2.212498625005181
0.12031826766707095,1.2387590357934952,2.2110722877031384
0.12092902029482258,1.2387180302436989,2.2096395284490455
0.12153977292257422,1.2386775795482285,2.208199771582754
0.12215052555032585,1.2386376671997743,2.2067524552323916
0.12276127817807747,1.2385982767343875,2.205297031678238
0.1233720308058291,1.23855939173883,2.2038329677038897
0.12398278343358073,1.2385209958578796,2.202359744934362
0.12459353606133236,1.238483072801577,2.200876860160907
0.125204288689084,1.238445606352415,2.1993838256522897
0.1258150413168356,1.23840858037246,2.197880169452328
0.12642579394458725,1.2383719788104035,2.1963654356634073
0.12703654657233887,1.2383357857085346,2.1948391847158684
0.12764729920009052,1.2382999852096295,2.1933009936229855
0.12825805182784214,1.2382645615637544,2.191750456221428
0.12886880445559376,1.238229499134973,2.190187183397
0.1294795570833454,1.2381947824079547,2.1886108032955334
0.13009030971109703,1.2381603959944794,2.18702096151882
0.13070106233884865,1.238126324639832,2.18541732130545
0.13131181496660027,1.238092553229083,2.1837995636964367
0.13192256759435192,1.2380590667932478,2.1821673876856185
0.13253332022210354,1.2380258505153254,2.1805205103547034
0.1331440728498552,1.2379928897362034,2.178858666992931
0.13375482547760678,1.2379601699604343,2.177181611201345
0.13436557810535843,1.237927676861871,2.175489114981643
0.13497633073311005,1.2378953962891606,2.1737809688095857
0.1355870833608617,1.237863314271094,2.172056981693046
0.13619783598861332,1.2378314170218034,2.1703169812146723
0.13680858861636494,1.2377996909458082,2.168560813559275
0.13741934124411656,1.2377681226429014,2.1667883435259525
0.13803009387186818,1.2377366989128777,2.164999454525118
0.13864084649961983,1.2377054067600972,2.1631940485604697
0.13925159912737145,1.237674233397882,2.1613720461960466
0.1398623517551231,1.2376431662527434,2.159533386508544
0.14047310438287472,1.2376121929684378,2.157678027024992
0.14108385701062634,1.2375813014098482,2.155805943646002
0.141694609638378,1.2375504796666879,2.1539171305547633
0.1423053622661296,1.2375197160570275,2.1520116001119747
0.14291611489388123,1.2374889991306413,2.1500893827369816
0.14352686752163288,1.23745831767217,2.1481505267752636
0.1441376201493845,1.2374276607041041,2.1461950983526017
0.14474837277713615,1.2373970174895799,2.144223181216146
0.14535912540488774,1.2373663775349915,2.142234876562671
0.14596987803263936,1.237335730592418,2.140230302854264
0.146580630660391,1.2373050666618646,2.138209595621816
0.14719138328814263,1.2372743759933162,2.1361729072565687
0.14780213591589428,1.237243649088606,2.134120406790042
0.1484128885436459,1.237212876703097,2.1320522796627106
0.14902364117139752,1.2371820498471793,2.129968727481718
0.14963439379914917,1.2371511597875817,2.1278699677680124
0.1502451464269008,1.2371201980484985,2.1257562336932625
0.15085589905465244,1.2370891564125346,2.123627773806885
0.15146665168240406,1.2370580269214684,2.1214848517536007
0.15207740431015568,1.237026801876833,2.1193277459818725
0.15268815693790733,1.236995473840321,2.1171567494435926
0.15329890956565892,1.236964035634011,2.114972169285468
0.15390966219341054,1.2369324803404191,2.1127743265324197
0.1545204148211622,1.2369008013023786,2.1105635557634717
0.1551311674489138,1.2368689921227483,2.10834020478046
0.15574192007666546,1.2368370466639544,2.1061046342700234
0.15635267270441708,1.2368049590473655,2.103857217459246
0.1569634253321687,1.2367727236525072,2.1015983397653613
0.15757417795992035,1.2367403351161155,2.099328398439943
0.15818493058767197,1.2367077883310351,2.097047802207982
0.15879568321542362,1.236675078444965,2.094756970902216
0.15940643584317524,1.2366422008590532,2.0924563350932033
0.16001718847092686,1.2366091512263464,2.0901463357154393
0.1606279410986785,1.236575925450097,2.0878274236900056
0.1612386937264301,1.2365425196819302,2.0855000595440862
0.16184944635418172,1.2365089303198775,2.0831647130277697
0.16246019898193337,1.2364751540062777,2.0808218627285417
0.163070951609685,1.2364411876255519,2.0784719956837927
0.16368170423743664,1.2364070283018542,2.0761156069918223
0.16429245686518826,1.2363726733966038,2.073753199421579
0.16490320949293988,1.2363381205059016,2.071385283021644
0.16551396212069153,1.2363033674578365,2.069012374728702
0.16612471474844315,1.2362684123096852,2.0666349979759175
0.1667354673761948,1.236233253345009,2.0642536823015507
0.16734622000394642,1.2361978890706535,2.061868962958163
0.16795697263169804,1.2361623182136532,2.059481380522676
0.16856772525944969,1.2361265397180479,2.0570914805077334
0.16917847788720128,1.2360905527416144,2.054699812974547
0.16978923051495293,1.2360543566525153,2.052306932147614
0.17039998314270455,1.2360179510258738,2.0499133960315805
0.17101073577045617,1.2359813356402751,2.047519766030544
0.17162148839820782,1.2359445104742008,2.045126606570051
0.17223224102595944,1.2359074757023982,2.0427344847220748
0.17284299365371106,1.2358702316921915,2.0403439698332613
0.1734537462814627,1.2358327789997379,2.037955633156618
0.17406449890921433,1.2357951183662332,2.035570047486964
0.17467525153696598,1.2357572507140684,2.033187786800334
0.1752860041647176,1.2357191771429452,2.0308094258975435
0.17589675679246922,1.2356808989259531,2.028435540052148
0.17650750942022086,1.2356424175056107,2.026066704662996
0.17711826204797246,1.2356037344898747,2.023703494911554
0.1777290146757241,1.235564851648126,2.021346485424175
0.17833976730347573,1.2355257709071266,2.0189962499395273
0.17895051993122735,1.2354864943469621,2.016653360981263
0.179561272558979,1.2354470241969642,2.014318389536176
0.18017202518673062,1.2354073628316218,2.0119919047378887
0.18078277781448224,1.235367512766484,2.0096744735562964
0.18139353044223389,1.2353274766540558,2.0073666604927998
0.1820042830699855,1.2352872572796907,2.0050690272815292
0.18261503569773715,1.2352468575574849,2.002782132596576
0.18322578832548878,1.2352062805261756,2.0005065317654043
0.1838365409532404,1.2351655293450434,1.9982427764884747
0.18444729358099204,1.2351246072898274,1.995991414565183
0.18505804620874364,1.2350835177486492,1.9937529896261774
0.18566879883649529,1.235042264217955,1.9915280408721272
0.1862795514642469,1.2350008502984726,1.9893171028189722
0.18689030409199853,1.2349592796911897,1.9871207050497197
0.18750105671975018,1.2349175561933552,1.9849393719728294
0.1881118093475018,1.234875683694504,1.9827736225871855
0.18872256197525342,1.2348336661725101,1.9806239702537356
0.18933331460300507,1.2347915076896667,1.978490922473756
0.18994406723075669,1.2347492123888006,1.9763749806737945
0.19055481985850833,1.2347067844894173,1.9742766399972662
0.19116557248625995,1.2346642282838816,1.9721963891027563
0.19177632511401158,1.2346215481336358,1.9701347099689086
0.19238707774176322,1.2345787484654547,1.968092077706048
0.19299783036951482,1.2345358337677426,1.9660689603743502
0.19360858299726647,1.2344928085868692,1.9640658188086835
0.19421933562501809,1.2344496775235514,1.9620831064499749
0.1948300882527697,1.2344064452292764,1.9601212691831598
0.19544084088052135,1.2343631164027717,1.9581807451816082
0.19605159350827298,1.234319695786522,1.956261964758033
0.19666234613602462,1.2342761881633317,1.9543653502218161
0.19727309876377624,1.2342325983529392,1.9524913157427006
0.19788385139152787,1.2341889312086773,1.9506402672208034
0.1984946040192795,1.2341451916141868,1.9488126021628995
0.19910535664703113,1.2341013844801787,1.9470087095648925
0.19971610927478275,1.2340575147412507,1.9452289698004444
0.20032686190253438,1.2340135873527536,1.943473754515672
0.200937614530286,1.2339696072877135,1.9417434265298594
0.20154836715803764,1.2339255795338047,1.9400383397421268
0.20215911978578927,1.2338815090903787,1.9383588390439386
0.20276987241354089,1.2338374009655455,1.9367052602374437
0.20338062504129253,1.233793260173312,1.9350779299595247
0.20399137766904415,1.2337490917307727,1.9334771656114953
0.2046021302967958,1.2337049006553573,1.9319032752943806
0.20521288292454742,1.2336606919621322,1.9303565577496729
0.20582363555229904,1.2336164706611583,1.9288373023055159
0.2064343881800507,1.2335722417549038,1.9273457888282175
0.2070451408078023,1.2335280102357118,1.9258822876790223
0.2076558934355539,1.233483781083325,1.9244470596760317
0.20826664606330555,1.2334395592624632,1.923040356061242
0.20887739869105718,1.233395349720457,1.9216624184725815
0.20948815131880882,1.233351157384938,1.9203134789208427
0.21009890394656044,1.2333069871615812,1.9189937597714999
0.21070965657431207,1.2332628439319036,1.9177034737312584
0.2113204092020637,1.2332187325511166,1.916442823839284
0.21193116182981533,1.2331746578460325,1.9152120034630196
0.21254191445756698,1.2331306246130254,1.914011196298535
