frequency,refractiveIndex,absorption
0.0006107526277516292,4.2518543859510824,0.19806384634166654
0.0012215052555032584,3.7681571739554154,0.6249027599195378
0.0018322578832548875,3.307798680251242,1.079169587207719
0.002443010511006517,2.9345065791338047,1.4887284915903598
0.003053763138758146,2.6412598398957488,1.8402591941295516
0.003664515766509775,2.4104082199736006,2.1368713117981644
0.004275268394261404,2.2267534010214183,2.3851944221020553
0.004886021022013034,2.078961081568831,2.591917906359431
0.005496773649764663,1.958813035313337,2.762995665150518
0.006107526277516292,1.8603233929158247,2.903583988640407
0.006718278905267922,1.7790620710291734,3.0181556514390313
0.00732903153301955,1.7116835490322266,3.1106276104211408
0.00793978416077118,1.6556071386238156,3.1844589478556067
0.008550536788522809,1.6088013359742666,3.242713922073417
0.009161289416274438,1.5696383025267144,3.288097727278429
0.009772042044026067,1.5367952069825543,3.322976130221545
0.010382794671777697,1.5091865182318223,3.3493894674966898
0.010993547299529326,1.485916378692659,3.369068531929812
0.011604299927280955,1.4662437701986832,3.383456105302941
0.012215052555032585,1.4495557860802442,3.393734545146753
0.012825805182784214,1.4353461681092805,3.400857658016476
0.013436557810535843,1.4231974914183583,3.4055842286504254
0.014047310438287471,1.4127661179239732,3.4085107107437027
0.0146580630660391,1.4037694322700751,3.410101249271789
0.015268815693790731,1.3959750552949164,3.410713994975988
0.01587956832154236,1.389191798961313,3.4106233492734486
0.01649032094929399,1.3832621479927174,3.4100382520765926
0.017101073577045618,1.3780560616282191,3.4091168996840167
0.01771182620479725,1.3734658986063975,3.407978400438772
0.018322578832548876,1.3694022835174866,3.406711895028204
0.018933331460300507,1.3657907520888604,3.405383630234394
0.019544084088052135,1.3625690345018333,3.4040424106824436
0.020154836715803762,1.3596848573653364,3.4027237819102094
0.020765589343555393,1.3570941650419752,3.4014532304023306
0.02137634197130702,1.3547596788474952,3.4002486269001264
0.021987094599058652,1.3526497279422764,3.3991220897702457
0.02259784722681028,1.3507372985424622,3.3980814051656587
0.02320859985456191,1.3489992586154347,3.3971311090214535
0.023819352482313542,1.3474157237834106,3.396273311219695
0.02443010511006517,1.345969537049477,3.3955083231908905
0.025040857737816797,1.3446458404740256,3.3948351356078197
0.025651610365568428,1.3434317213239257,3.3942517816812905
0.026262362993320056,1.3423159187111988,3.3937556130880555
0.026873115621071687,1.3412885795138556,3.3933435091205593
0.027483868248823314,1.3403410545767043,3.3930120347582924
0.028094620876574942,1.3394657279429862,3.3927575596471775
0.028705373504326573,1.3386558732632725,3.3925763471509915
0.0293161261320782,1.3379055326410667,3.3924646204915176
0.029926878759829835,1.3372094140641908,3.3924186113572783
0.030537631387581463,1.3365628042838646,3.3924345951116215
0.03114838401533309,1.3359614945760676,3.3925089157754864
0.03175913664308472,1.335401717281214,3.3926380032282712
0.03236988927083635,1.334880091391001,3.3928183845085282
0.03298064189858798,1.3343935757535028,3.393046690664221
0.03359139452633961,1.333939428713257,3.3933196602694995
0.034202147154091235,1.333515173203436,3.3936341404685217
0.03481289978184286,1.3331185664710878,3.393987086208256
0.0354236524095945,1.3327475737508998,3.3943755581690875
0.036034405037346125,1.3324003453136177,3.394796719783252
0.03664515766509775,1.3320751964066158,3.3952478336388605
0.03725591029284938,1.331770589679762,3.395726257496348
0.037866662920601014,1.3314851197525512,3.396229440088547
0.038477415548352635,1.331217499630787,3.3967549168328297
0.03908816817610427,1.3309665487248024,3.3973003055506883
0.039698920803855904,1.3307311822578012,3.3978633022641866
0.040309673431607525,1.330510401883633,3.3984416771192447
0.04092042605935916,1.3303032873592087,3.399033270470184
0.04153117868711079,1.3301089891386004,3.3996359891483654
0.04214193131486242,1.329926721774375,3.400247802929017
0.04275268394261404,1.3297557580273949,3.4008667412032816
0.04336343657036568,1.3295954235996805,3.4014908898577056
0.043974189198117304,1.329445092416303,3.402118388359545
0.04458494182586893,1.329304182392005,3.4027474270434883
0.04519569445362056,1.3291721516265864,3.4033762445935496
0.045806447081372194,1.329048494980238,3.4040031257123813
0.04641719970912382,1.328932740986165,3.4046263989695906
0.04702795233687545,1.3288244490631522,3.4052444348198896
0.047638704964627084,1.3287232069952997,3.405855643781836
0.048249457592378704,1.328628628650133,3.4064584747677817
0.04886021022013034,1.3285403519097372,3.407051413555783
0.049470962847881966,1.3284580367925445,3.407632981394394
0.050081715475633594,1.3283813637460282,3.4082017337315826
0.05069246810338522,1.3283100320928116,3.4087562590593556
0.051303220731136856,1.328243758614699,3.4092951778659977
0.05191397335888848,1.3281822762608657,3.40981714168827
0.05252472598664011,1.3281253329679805,3.410320832256298
0.053135478614391746,1.3280726905813542,3.4108049607242172
0.05374623124214337,1.3280241238674095,3.4112682669801897
0.054356983869895,1.3279794196087884,3.4117095190295608
0.05496773649764663,1.3279383757743346,3.4121275124455197
0.05557848912539826,1.3279008007570028,3.412521069881804
0.056189241753149884,1.32786651267346,3.412889040642423
0.05679999438090152,1.3278353387197768,3.413230300303694
0.057410747008653146,1.3278071145781822,3.413543750384087
0.05802149963640477,1.327781683870341,3.413828318057795
0.0586322522641564,1.3277588976530745,3.4140829559081105
0.059243004891908035,1.3277386139528358,3.4143066417169945
0.05985375751965967,1.3277206973356077,3.4144983782874108
0.06046451014741129,1.3277050185092083,3.4146571932952816
0.061075262775162925,1.3276914539552793,3.4147821391680755
0.06168601540291455,1.3276798855884757,3.4148722929872326
0.06229676803066618,1.3276702004406158,3.4149267564118726
0.0629075206584178,1.3276622903677489,3.414944655621263
0.06351827328616944,1.3276560517782838,3.414925141273904
0.06412902591392107,1.3276513853804894,3.414867388480976
0.0647397785416727,1.3276481959478241,3.4147705967922
0.06535053116942433,1.3276463921006918,3.4146339901923244
0.06596128379717596,1.3276458861033391,3.4144568171063487
0.0665720364249276,1.3276465936747208,3.414238350411985
0.06718278905267921,1.327648433812261,3.413977887457782
0.06779354168043085,1.3276513286275258,3.413674750085462
0.06840429430818247,1.3276552031929085,3.413328284655208
0.06901504693593409,1.3276599853984994,3.4129378620725945
0.06962579956368573,1.3276656058183802,3.412502877816033
0.07023655219143736,1.3276719975856508,3.412022751963647
0.070847304819189,1.3276790962755403,3.4114969292186004
0.07145805744694061,1.327686839796018,3.410924878931846
0.07206881007469225,1.327695168285357,3.410306095121582
0.07267956270244387,1.3277040240161522,3.4096400964884035
0.0732903153301955,1.3277133513053265,3.408926426425651
0.07390106795794714,1.3277230964297042,3.4081646530239773
0.07451182058569876,1.3277332075467503,3.4073543690697754
0.0751225732134504,1.3277436346201181,3.406495192036652
0.07573332584120203,1.327754329349663,3.4055867640695965
0.07634407846895366,1.3277652451056134,3.4046287519611558
0.07695483109670527,1.3277763368666082,3.4036208471193854
0.0775655837244569,1.3277875611613326,3.402562765527006
0.07817633635220854,1.3277988760135053,3.4014542476914578
0.07878708897996017,1.327810240889987,3.4002950585855514
0.07939784160771181,1.3278216166517924,3.3990849875784233
0.08000859423546343,1.3278329655078127,3.3978238483564898
0.08061934686321505,1.3278442509710577,3.3965114788342583
0.08123009949096668,1.3278554378172525,3.39514774105479
0.08184085211871832,1.3278664920456227,3.3937325210795946
0.08245160474646994,1.3278773808417237,3.3922657288679847
0.08306235737422157,1.3278880725421751,3.3907472981456244
0.08367311000197321,1.32789853660117,3.3891771862623306
0.08428386262972484,1.3279087435586394,3.387555374039081
0.08489461525747646,1.3279186650099628,3.385881865604121
0.08550536788522808,1.3279282735771167,3.384156688218337
0.08611612051297972,1.3279375428811666,3.3823798920897605
0.08672687314073135,1.3279464475160119,3.3805515501774455
0.08733762576848299,1.3279549630232972,3.378671757984631
0.08794837839623461,1.327963065868414,3.376740633341443
0.08855913102398623,1.327970733417518,3.374758316177105
0.08916988365173786,1.3279779439154922,3.37272496828196
0.0897806362794895,1.327984676464795,3.37064077305935
0.09039138890724112,1.3279909110051322,3.368505935267542
0.09100214153499275,1.3279966282938946,3.366320680751966
0.09161289416274439,1.3280018098873145,3.364085256167903
0.09222364679049602,1.3280064381222898,3.361799928693828
0.09283439941824764,1.3280104960988297,3.3594649857357686
0.09344515204599926,1.3280139676630824,3.3570807346227443
0.0940559046737509,1.328016837390905,3.3546475022937527
0.09466665730150253,1.328019090571937,3.352165634976362
0.09527740992925417,1.328020713194147,3.349635497857369
0.09588816255700579,1.3280216919288201,3.3470574747457404
0.09649891518475741,1.3280220141159513,3.3444319677281045
0.09710966781250904,1.328021667750028,3.341759396817178
0.09772042044026068,1.3280206414661664,3.339040199593382
0.09833117306801231,1.3280189245265832,3.3362748308399923
0.09894192569576393,1.3280165068073801,3.333463762172184
0.09955267832351557,1.3280133787856208,3.330607481660215
0.10016343095126719,1.3280095315266804,3.327706493447196
0.10077418357901882,1.3280049566718517,3.324761317361698
0.10138493620677044,1.327999646426192,3.3217724885255997
0.10199568883452208,1.3279935935465947,3.3187405569574544
0.10260644146227371,1.327986791330072,3.3156660871718238
0.10321719409002535,1.3279792336022385,3.312549657774825
0.10382794671777695,1.3279709147059813,3.3093918610562945
0.10443869934552859,1.327961829490307,3.3061933025789205
0.10504945197328022,1.327951973299358,3.3029546007646378
0.10566020460103186,1.3279413419615844,3.2996763864787155
0.10627095722878349,1.3279299317790696,3.2963593026118048
0.10688170985653511,1.327917739516997,3.293004003660312
0.10749246248428675,1.3279047623932552,3.2896111553055007
0.10810321511203837,1.3278909980681717,3.286181433991503
0.10871396773979,1.3278764446343734,3.282715526502746
0.10932472036754162,1.327861100606768,3.27921412954104
0.10993547299529326,1.3278449649126394,3.2756779493025934
0.11054622562304489,1.3278280368818562,3.2721077010553996
0.11115697825079653,1.327810316237192,3.268504108717204
0.11176773087854816,1.3277918030847444,3.264867904434387
0.11237848350629977,1.3277724979044665,3.2611998281621153
0.1129892361340514,1.3277524015407907,3.2575006272459452
0.11359998876180304,1.327731515193358,3.2537710560052817
0.11421074138955467,1.3277098404078402,3.2500118753188825
0.11482149401730629,1.3276873790668609,3.246223852212741
0.11543224664505793,1.3276641333810106,3.242407759450583
0.11604299927280955,1.3276401058799554,3.2385643751272353
0.11665375190056118,1.3276152994036388,3.23469448226512
0.1172645045283128,1.3275897170935789,3.2307988684141247
0.11787525715606444,1.327563362384254,3.2268783252550577
0.11848600978381607,1.3275362389945853,3.2229336482069653
0.1190967624115677,1.3275083509195071,3.2189656360384435
0.11970751503931934,1.3274797024216352,3.21497509048324
0.12031826766707095,1.3274502980230218,3.210962815860274
0.12092902029482258,1.3274201424970096,3.20692961869835
0.12153977292257422,1.327389240860174,3.2028763073656275
0.12215052555032585,1.327357598364364,3.198803691704138
0.12276127817807747,1.3273252204888326,3.1947125826694447
0.1233720308058291,1.3272921129324675,3.1906037919756356
0.12398278343358073,1.327258281606113,3.1864781317457678
0.12459353606133236,1.3272237326249903,3.1823364141679233
0.125204288689084,1.3271884723012144,3.1781794511570047
0.1258150413168356,1.3271525071364094,3.174008054022409
0.12642579394458725,1.3271158438144193,3.169823033141612
0.12703654657233887,1.3270784891941216,3.16562519763992
0.12764729920009052,1.327040450302337,3.1614153550763247
0.12825805182784214,1.327001734326842,3.157194311135664
0.12886880445559376,1.3269623486094808,3.1529628693271157
0.1294795570833454,1.326922300639379,3.1487218306891034
0.13009030971109703,1.3268815980462598,3.1444719935006926
0.13070106233884865,1.3268402485938628,3.1402141529995795
0.13131181496660027,1.3267982601734651,3.135949101106561
0.13192256759435192,1.326755640797508,3.1316776261567822
0.13253332022210354,1.326712398593325,3.127400512637543
0.1331440728498552,1.3266685417969761,3.123118540932889
0.13375482547760678,1.326624078747188,3.1188324870748687
0.13436557810535843,1.3265790178793957,3.1145431225016007
0.13497633073311005,1.326533367719894,3.110251213822025
0.1355870833608617,1.3264871368800908,3.1059575225874685
0.13619783598861332,1.326440334050868,3.1016628050699366
0.13680858861636494,1.3263929679970485,3.0973678120471555
0.13741934124411656,1.326345047551968,3.093073288594366
0.13803009387186818,1.3262965816121535,3.088779973882816
0.13864084649961983,1.3262475791321067,3.084488600984933
0.13925159912737145,1.3261980491191943,3.080199896686195
0.1398623517551231,1.326148000628643,3.0759145813036004
0.14047310438287472,1.32609744275864,3.0716333685107267
0.14108385701062634,1.3260463846455386,3.067356965169359
0.141694609638378,1.3259948354591682,3.063086071167584
0.1423053622661296,1.3259428043982493,3.0588213792643697
0.14291611489388123,1.325890300685912,3.054563574940505
0.14352686752163288,1.3258373335653182,3.050313336255889
0.1441376201493845,1.325783912295386,3.0460713337130936
0.14474837277713615,1.3257300461466177,3.0418382301271247
0.14535912540488774,1.3256757443970277,3.037614680501323
0.14596987803263936,1.3256210163281743,3.033401331909341
0.146580630660391,1.325565871221289,3.0291988233830907
0.14719138328814263,1.3255103183535066,3.0250077858066415
0.14780213591589428,1.3254543669941956,3.0208288418159035
0.1484128885436459,1.3253980264013834,3.016662605704129
0.14902364117139752,1.3253413058182824,3.0125096833330187
0.14963439379914917,1.325284214469909,3.0083706720494807
0.1502451464269008,1.3252267615598008,3.00424616060783
0.15085589905465244,1.3251689562668254,3.0001367290974312
0.15146665168240406,1.3251108077420861,2.996042948875668
0.15207740431015568,1.3250523251059165,2.991965382506122
0.15268815693790733,1.324993517444968,2.9879045837019045
0.15329890956565892,1.3249343938093883,2.9838610972739987
0.15390966219341054,1.3248749632100876,2.9798354590846308
0.1545204148211622,1.3248152346160937,2.97582819600539
0.1551311674489138,1.324755216951994,2.9718398258801937
0.15574192007666546,1.3246949190954622,2.967870857492882
0.15635267270441708,1.3246343498748712,2.9639217905393593
0.1569634253321687,1.3245735180669878,2.9599931156042563
0.15757417795992035,1.3245124323947508,2.956085314141923
0.15818493058767197,1.324451101525129,2.952198858461696
0.15879568321542362,1.3243895340670593,2.9483342117173894
0.15940643584317524,1.324327738569463,2.944491827900812
0.16001718847092686,1.3242657235193391,2.940672151839306
0.1606279410986785,1.3242034973399353,2.93687561919716
0.1612386937264301,1.3241410683889898,2.933102656480834
0.16184944635418172,1.32407844495705,2.929353681047831
0.16246019898193337,1.3240156352658614,2.9256291011192546
0.163070951609685,1.3239526474668282,2.92192931579578
0.16368170423743664,1.323889489639542,2.91825471507712
0.16429245686518826,1.3238261697903797,2.9146056798847386
0.16490320949293988,1.3237626958511688,2.910982582087885
0.16551396212069153,1.3236990756779161,2.9073857845326585
0.16612471474844315,1.323635317049603,2.9038156410741967
0.1667354673761948,1.3235714276670418,2.9002724966117936
0.16734622000394642,1.3235074151517963,2.8967566871268833
0.16795697263169804,1.3234432870451593,2.893268539723794
0.16856772525944969,1.323379050807192,2.8898083726732486
0.16917847788720128,1.323314713815821,2.886376495458379
0.16978923051495293,1.3232502833659894,2.8829732088233535
0.17039998314270455,1.3231857666688673,2.879598804824385
0.17101073577045617,1.3231211708511128,2.876253566883155
0.17162148839820782,1.3230565029541879,2.8729377698424168
0.17223224102595944,1.3229917699337252,2.8696516800239134
0.17284299365371106,1.322926978658946,2.8663955552883107
0.1734537462814627,1.3228621359121258,2.8631696450972446
0.17406449890921433,1.3227972483881107,2.8599741905772897
0.17467525153696598,1.3227323226938774,2.8568094245858227
0.1752860041647176,1.322667365348142,2.8536755717787226
0.17589675679246922,1.3226023827810107,2.8505728486797928
0.17650750942022086,1.3225373813336758,2.8475014637518545
0.17711826204797246,1.3224723672581538,2.844461617469462
0.1777290146757241,1.3224073467170625,2.8414535023931307
0.17833976730347573,1.3223423257834432,2.8384773032450457
0.17895051993122735,1.3222773104406154,2.835533196986161
0.179561272558979,1.3222123065820741,2.8326213528946487
0.18017202518673062,1.322147320011424,2.8297419326455957
0.18078277781448224,1.3220823564423458,2.8268950903919405
0.18139353044223389,1.3220174214986018,2.824080972846544
0.1820042830699855,1.3219525207140723,2.82129971936537
0.18261503569773715,1.3218876595328266,2.8185514620316323
0.18322578832548878,1.3218228433092247,2.815836325741019
0.1838365409532404,1.3217580773080517,2.813154428287769
0.18444729358099204,1.3216933667046795,2.8105058804516037
0.18505804620874364,1.3216287165852596,2.807890786085536
0.18566879883649529,1.321564131946945,2.8053092422043613
0.1862795514642469,1.321499617698136,2.802761339073921
0.18689030409199853,1.3214351786587555,2.800247160300972
0.18750105671975018,1.3213708195605491,2.7977667829237145
0.1881118093475018,1.321306545047409,2.7953202775028574
0.18872256197525342,1.3212423596757226,2.7929077082131886
0.18933331460300507,1.3211782679147441,2.790529132935655
0.18994406723075669,1.321114274146989,2.7881846033498223
0.19055481985850833,1.3210503826686482,2.785874165026762
0.19116557248625995,1.3209865976900252,2.783597857522256
0.19177632511401158,1.3209229233359923,2.7813557144703043
0.19238707774176322,1.3208593636464647,2.7791477636769084
0.19299783036951482,1.320795922576897,2.776974027214054
0.19360858299726647,1.320732603998793,2.7748345215139256
0.19421933562501809,1.3206694117002358,2.7727292574631854
0.1948300882527697,1.3206063493864328,2.770658240497453
0.19544084088052135,1.320543420680279,2.768621470695818
0.19605159350827298,1.3204806291229316,2.766618942875373
0.19666234613602462,1.320417978174403,2.7646506466858325
0.19727309876377624,1.3203554712141654,2.762716566704031
0.19788385139152787,1.3202931115417704,2.760816682528454
0.1984946040192795,1.3202309023774796,2.758950968873614
0.19910535664703113,1.3201688468629103,2.757119395664379
0.19971610927478275,1.320106948061689,2.755321928130076
0.20032686190253438,1.32004520896012,2.7535585268985225
0.200937614530286,1.319983632467862,2.7518291480897434
0.20154836715803764,1.319922221418616,2.7501337434095796
0.20215911978578927,1.3198609785708224,2.748472260242944
0.20276987241354089,1.3197999066083674,2.746844641746865
0.20338062504129253,1.3197390081412979,2.7452508269432
0.20399137766904415,1.319678285706545,2.7436907508110195
0.2046021302967958,1.319617741768654,2.7421643443786645
0.20521288292454742,1.3195573787205241,2.740671534815408
0.20582363555229904,1.319497198884152,2.7392122455227286
0.2064343881800507,1.3194372045113845,2.7377863962251934
0.2070451408078023,1.3193773977846748,2.736393903060865
0.2076558934355539,1.3193177808178467,2.7350346786712825
0.20826664606330555,1.319258355656863,2.733708632290949
0.20887739869105718,1.3191991242805974,2.7324156698363367
0.20948815131880882,1.319140088601614,2.731155693994384
0.21009890394656044,1.3190812504669474,2.729928604310441
0.21070965657431207,1.3190226116588897,2.728734297275682
0.2113204092020637,1.318964173895779,2.7275726664139546
0.21193116182981533,1.3189059388327906,2.7264436023680374
0.21254191445756698,1.3188479080627342,2.7253469929853114
