frequency,refractiveIndex,absorption
0.0006107526277516292,3.9412796469382365,0.17316322204956452
0.0012215052555032584,3.526201070000379,0.5566136080170703
0.0018322578832548875,3.116790501570366,0.9749737620109181
0.002443010511006517,2.7769096957119697,1.3576536143431968
0.003053763138758146,2.5059498615104903,1.688462097576283
0.003664515766509775,2.2906333724929944,1.9682611161904
0.004275268394261404,2.1183113578201027,2.2022651004737632
0.004886021022013034,1.9791419467145173,2.396293088201094
0.005496773649764663,1.8658118277081963,2.5557657052249168
0.006107526277516292,1.7729041525539924,2.685523169031701
0.006718278905267922,1.696356563944371,2.789869750204325
0.00732903153301955,1.6330643994014304,2.8726564697826387
0.00793978416077118,1.5806043554249474,2.9373448711140266
0.008550536788522809,1.5370460529116892,2.9870407415408464
0.009161289416274438,1.5008250457000984,3.02450432710889
0.009772042044026067,1.4706575853761865,3.0521496516898288
0.010382794671777697,1.4454827765151017,3.0720451746338804
0.010993547299529326,1.4244219035727341,3.0859238565857114
0.011604299927280955,1.4067480673574428,3.0952053013078853
0.012215052555032585,1.3918619284207732,3.101028193542702
0.012825805182784214,1.3792712780019858,3.1042888783316958
0.013436557810535843,1.3685733670337616,3.1056815661756305
0.014047310438287471,1.3594395571582887,3.1057365601570974
0.0146580630660391,1.3516021099038402,3.1048542642101356
0.015268815693790731,1.3448429804726183,3.1033339871719594
0.01587956832154236,1.3389844552572183,3.1013974628509953
0.01649032094929399,1.3338814344456356,3.0992075400436145
0.017101073577045618,1.329415139448283,3.096882738527106
0.01771182620479725,1.3254880236790887,3.0945084194382733
0.018322578832548876,1.3220196796443318,3.0921452664137172
0.018933331460300507,1.3189435586454368,3.089835675995734
0.019544084088052135,1.3162043461183386,3.0876085469592347
0.020154836715803762,1.3137558620139853,3.0854828563697407
0.020765589343555393,1.3115593796268967,3.0834703228401956
0.02137634197130702,1.309582277027162,3.081577386308881
0.021987094599058652,1.3077969525910689,3.079806677581578
0.02259784722681028,1.3061799502883937,3.078158107628865
0.02320859985456191,1.30471125177238,3.0766296737544416
0.023819352482313542,1.303373701378642,3.0752180550055916
0.02443010511006517,1.3021525372972391,3.073919050690429
0.025040857737816797,1.3010350078130537,3.0727279020799703
0.025651610365568428,1.3000100559287993,3.071639527125403
0.026262362993320056,1.299068059150375,3.0706486904103496
0.026873115621071687,1.298200613932499,3.069750124906084
0.027483868248823314,1.297400356417146,3.068938617897017
0.028094620876574942,1.2966608127766361,3.0682090703187685
0.028705373504326573,1.2959762737974097,3.06755653642219
0.0293161261320782,1.295341689387444,3.0669762489390817
0.029926878759829835,1.294752579520437,3.0664636336255144
0.030537631387581463,1.294204958790241,3.066014316085982
0.03114838401533309,1.2936952722760304,3.0656241230513883
0.03175913664308472,1.2932203408406748,3.06528907973551
0.03236988927083635,1.2927773143238699,3.0650054044821937
0.03298064189858798,1.2923636313649651,3.0647695016047902
0.03359139452633961,1.2919769848116165,3.064577953085465
0.034202147154091235,1.2916152918499688,3.064427509625499
0.03481289978184286,1.2912766681383527,3.0643150814048408
0.0354236524095945,1.290959405346078,3.064237728809268
0.036034405037346125,1.290661951596936,3.0641926533080577
0.03664515766509775,1.2903828943977456,3.064177188608914
0.03725591029284938,1.290120945698854,3.064188792174575
0.037866662920601014,1.2898749287886695,3.064225037154373
0.038477415548352635,1.2896437667701033,3.0642836047607283
0.03908816817610427,1.289426472404964,3.0643622771037355
0.039698920803855904,1.2892221391442378,3.0644589304846637
0.040309673431607525,1.2890299331889001,3.064571529140645
0.04092042605935916,1.2888490864483757,3.0646981194266836
0.04153117868711079,1.2886788902826658,3.064836824417088
0.04214193131486242,1.2885186899301637,3.0649858389060527
0.04275268394261404,1.288367879536716,3.065143424785527
0.04336343657036568,1.288225897712986,3.0653079067780107
0.043974189198117304,1.2880922235569696,3.065477668501842
0.04458494182586893,1.2879663730868767,3.0656511488470275
0.04519569445362056,1.2878478960367246,3.0658268386401883
0.045806447081372194,1.2877363729731368,3.06600327757826
0.04641719970912382,1.2876314126970947,3.0661790514115164
0.04702795233687545,1.287532649898933,3.0663527893574507
0.047638704964627084,1.2874397430387798,3.0665231617283983
0.048249457592378704,1.2873523724280322,3.0666888777565076
0.04886021022013034,1.2872702384903911,3.0668486836012034
0.049470962847881966,1.2871930601835226,3.0670013605248716
0.050081715475633594,1.2871205735646394,3.067145723223783
0.05069246810338522,1.2870525304852147,3.0672806183021635
0.051303220731136856,1.2869886974017388,3.0674049228780493
0.05191397335888848,1.286928854290898,3.067517543310683
0.05252472598664011,1.2868727936588555,3.067617414039701
0.053135478614391746,1.2868203196354357,3.0677034965272396
0.05374623124214337,1.28677124714503,3.067774778294803
0.054356983869895,1.286725401146903,3.0678302720472144
0.05496773649764663,1.2866826159383664,3.067869014876692
0.05557848912539826,1.2866427345149674,3.067890067540503
0.056189241753149884,1.2866056079824437,3.067892513806297
0.05679999438090152,1.286571095015736,3.0678754598594784
0.057410747008653146,1.2865390613608285,3.067838033767572
0.05802149963640477,1.2865093793756,3.0677793849968444
0.0586322522641564,1.2864819276062631,3.06769868397678
0.059243004891908035,1.2864565903962892,3.0675951217083703
0.05985375751965967,1.2864332575250208,3.0674679094125117
0.06046451014741129,1.2864118238734448,3.067316278214965
0.061075262775162925,1.2863921891148382,3.0671394788647497
0.06168601540291455,1.2863742574282053,3.0669367814829442
0.06229676803066618,1.2863579372326286,3.0667074753391477
0.0629075206584178,1.2863431409408204,3.0664508686529968
0.06351827328616944,1.2863297847303192,3.066166288418487
0.06412902591392107,1.2863177883309187,3.0658530802487256
0.0647397785416727,1.2863070748270355,3.065510608239213
0.06535053116942433,1.2862975704738406,3.0651382548476382
0.06596128379717596,1.2862892045260843,3.0647354207885162
0.0665720364249276,1.2862819090786277,3.0643015249409364
0.06718278905267921,1.2862756189177873,3.0638360042679604
0.06779354168043085,1.2862702713826704,3.0633383137461907
0.06840429430818247,1.286265806235747,3.062807926304251
0.06901504693593409,1.2862621655419721,3.0622443327688478
0.06962579956368573,1.2862592935558184,3.0616470418174355
0.07023655219143736,1.2862571366156432,3.061015579936167
0.070847304819189,1.286255643044853,3.0603494913824374
0.07145805744694061,1.2862547630593706,3.0596483381508177
0.07206881007469225,1.2862544486809557,3.0589116999417385
0.07267956270244387,1.2862546536559576,3.058139174131989
0.0732903153301955,1.2862553333791178,3.05733037574634
0.07390106795794714,1.2862564448220648,3.0564849374296292
0.07451182058569876,1.2862579464661728,3.0556025094186143
0.0751225732134504,1.2862597982394826,3.054682759513068
0.07573332584120203,1.2862619614574025,3.053725373045483
0.07634407846895366,1.2862643987669284,3.0527300528489736
0.07695483109670527,1.2862670740941475,3.0516965192228778
0.0775655837244569,1.2862699525947945,3.050624509895564
0.07817633635220854,1.2862730006076617,3.0495137799841667
0.07878708897996017,1.2862761856106657,3.0483641019507797
0.07939784160771181,1.286279476179396,3.047175265554862
0.08000859423546343,1.2862828419479784,3.045947077801492
0.08061934686321505,1.2862862535720985,3.044679362885254
0.08123009949096668,1.2862896826940466,3.043371962129461
0.08184085211871832,1.2862931019096455,3.0420247339205035
0.08245160474646994,1.286296484736942,3.0406375536371884
0.08306235737422157,1.2862998055865436,3.039210313574817
0.08367311000197321,1.2863030397334954,3.037742922863854
0.08428386262972484,1.286306163290596,3.0362353073831425
0.08489461525747646,1.28630915318306,3.034687409667458
0.08550536788522808,1.2863119871244362,3.0330991888093712
0.08611612051297972,1.286314643593707,3.031470620355273
0.08672687314073135,1.2863171018134891,3.0298016961956313
0.08733762576848299,1.2863193417292622,3.0280924244492993
0.08794837839623461,1.2863213439895662,3.026342829341935
0.08855913102398623,1.2863230899270983,3.0245529510785087
0.08916988365173786,1.286324561540658,3.0227228457098754
0.0897806362794895,1.2863257414778821,3.020852584993475
0.09039138890724112,1.2863266130187214,3.018942256248141
0.09100214153499275,1.2863271600596096,3.0169919622030847
0.09161289416274439,1.2863273670982829,3.015001820841131
0.09222364679049602,1.2863272192192095,3.0129719652362175
0.09283439941824764,1.2863267020795859,3.0109025433852845
0.09344515204599926,1.2863258018958679,3.0087937180346103
0.0940559046737509,1.2863245054308037,3.0066456665007038
0.09466665730150253,1.286322799980932,3.004458580485835
0.09527740992925417,1.2863206733645203,3.002232665888351
0.09588816255700579,1.2863181139099162,2.999968142607848
0.09649891518475741,1.286315110444281,2.9976652443453977
0.09710966781250904,1.286311652282685,2.9953242183988578
0.09772042044026068,1.286307729217544,2.9929453254535328
0.09833117306801231,1.2863033315083703,2.9905288393682152
0.09894192569576393,1.2862984498718222,2.988075046956845
0.09955267832351557,1.2862930754720336,2.985584247765867
0.10016343095126719,1.2862871999112058,2.9830567538475448
0.10077418357901882,1.2862808152204432,2.980492889529283
0.10138493620677044,1.2862739138508226,2.9778929911792207
0.10199568883452208,1.2862664886646784,2.975257406968228
0.10260644146227371,1.2862585329270912,2.9725864966284603
0.10321719409002535,1.2862500402975703,2.9698806312087154
0.10382794671777695,1.2862410048219142,2.967140192826705
0.10443869934552859,1.2862314209242427,2.964365574418437
0.10504945197328022,1.2862212833991897,2.9615571794849727
0.10566020460103186,1.2862105874042467,2.9587154218365783
0.10627095722878349,1.286199328452247,2.955840725334658
0.10688170985653511,1.2861875024039895,2.952933523631491
0.10749246248428675,1.286175105460986,2.9499942599080553
0.10810321511203837,1.2861621341583316,2.9470233866100646
0.10871396773979,1.2861485853576886,2.9440213651824916
0.10932472036754162,1.286134456240382,2.940988665802632
0.10993547299529326,1.286119744300596,2.9379257671120627
0.11054622562304489,1.2861044473386716,2.934833155947505
0.11115697825079653,1.2860885634544974,2.9317113270709143
0.11176773087854816,1.2860720910409922,2.9285607828988987
0.11237848350629977,1.2860550287776729,2.9253820332317026
0.1129892361340514,1.2860373756243075,2.922175594981861
0.11359998876180304,1.286019130814647,2.9189419919027766
0.11421074138955467,1.2860002938502348,2.9156817543173603
0.11482149401730629,1.2859808644942918,2.9123954188468892
0.11543224664505793,1.2859608427656737,2.909083528140278
0.11604299927280955,1.2859402289328974,2.9057466306039337
0.11665375190056118,1.2859190235082392,2.9023852801323207
0.1172645045283128,1.2858972272418954,2.899000035839431
0.11787525715606444,1.2858748411162129,2.895591461791294
0.11848600978381607,1.2858518663399812,2.892160126739707
0.1190967624115677,1.2858283043427865,2.8887066038572926
0.11970751503931934,1.2858041567694316,2.885231470474061
0.12031826766707095,1.2857794254744117,2.8817353078156165
0.12092902029482258,1.285754112516455,2.878218700743127
0.12153977292257422,1.2857282201531204,2.8746822374952017
0.12215052555032585,1.2857017508354542,2.871126509431821
0.12276127817807747,1.2856747072027073,2.8675521107804145
0.1233720308058291,1.2856470920771088,2.8639596383842414
0.12398278343358073,1.2856189084586984,2.86034969145313
0.12459353606133236,1.2855901595202164,2.856722871316804
0.125204288689084,1.285560848602052,2.853079781180771
0.1258150413168356,1.2855309792072476,2.84942102588496
0.12642579394458725,1.2855005549965626,2.8457472116651705
0.12703654657233887,1.2854695797835933,2.8420589459174947
0.12764729920009052,1.2854380575299509,2.8383568369656906
0.12825805182784214,1.2854059923404968,2.8346414938316884
0.12886880445559376,1.2853733884586362,2.8309135260092857
0.1294795570833454,1.2853402502616695,2.827173543241086
0.13009030971109703,1.2853065822562009,2.8234221552987866
0.13070106233884865,1.2852723890736064,2.8196599717668547
0.13131181496660027,1.2852376754655594,2.8158876018297008
0.13192256759435192,1.2852024462996157,2.8121056540623637
0.13253332022210354,1.285166706554855,2.8083147362247782
0.1331440728498552,1.2851304613175858,2.8045154550597164
0.13375482547760678,1.2850937157771039,2.800708416094352
0.13436557810535843,1.2850564752215143,2.7968942234456784
0.13497633073311005,1.2850187450336117,2.793073479629544
0.1355870833608617,1.2849805306868198,2.7892467853736416
0.13619783598861332,1.284941837741191,2.785414739434271
0.13680858861636494,1.2849026718394663,2.781577938416979
0.13741934124411656,1.284863038703195,2.777736976601127
0.13803009387186818,1.284822944128915,2.773892445768356
0.13864084649961983,1.284782393984393,2.7700449350350103
0.13925159912737145,1.284741394204927,2.766195030688506
0.1398623517551231,1.2846999507897057,2.7623433160276667
0.14047310438287472,1.2846580697982317,2.7584903712070474
0.14108385701062634,1.2846157573468053,2.754636773085231
0.141694609638378,1.2845730196050664,2.7507830950771055
0.1423053622661296,1.2845298627925996,2.746929907010129
0.14291611489388123,1.2844862931755987,2.7430777749845783
0.14352686752163288,1.2844423170635921,2.7392272612377546
0.1441376201493845,1.2843979408062283,2.7353789240121675
0.14474837277713615,1.2843531707901226,2.7315333174276684
0.14535912540488774,1.2843080134357632,2.727690991357509
0.14596987803263936,1.2842624751944773,2.7238524913083206
0.146580630660391,1.2842165625454594,2.72001835830401
0.14719138328814263,1.2841702819928547,2.716189128773513
0.14780213591589428,1.2841236400629075,2.7123653344424166
0.1484128885436459,1.2840766433011652,2.708547502228397
0.14902364117139752,1.2840292982697423,2.704736154140459
0.14963439379914917,1.283981611544644,2.700931807181967
0.1502451464269008,1.283933589713147,2.69713497325737
0.15085589905465244,1.2838852393712388,2.693346159082677
0.15146665168240406,1.2838365671211165,2.689565866099579
0.15207740431015568,1.2837875795687397,2.6857945903931957
0.15268815693790733,1.2837382833214435,2.6820328226134476
0.15329890956565892,1.2836886849856068,2.6782810478999304
0.15390966219341054,1.2836387911643772,2.674539745810364
0.1545204148211622,1.2835886084554506,2.6708093902524723
0.1551311674489138,1.2835381434489084,2.6670904494192835
0.15574192007666546,1.283487402725107,2.663383385727865
0.15635267270441708,1.2834363928526238,2.659688655761325
0.1569634253321687,1.2833851203862554,2.6560067102141725
0.15757417795992035,1.2833335918650706,2.652337993840873
0.15818493058767197,1.2832818138105153,2.648682945407614
0.15879568321542362,1.2832297927245695,2.645041997647243
0.15940643584317524,1.2831775350879568,2.6414155772172485
0.16001718847092686,1.2831250473584053,2.637804104660856
0.1606279410986785,1.2830723359689566,2.634207994371043
0.1612386937264301,1.2830194073263288,2.6306276545575815
0.16184944635418172,1.282966267809325,2.6270634872168994
0.16246019898193337,1.2829129237672927,2.623515888104854
0.163070951609685,1.282859381518631,2.6199852467122127
0.16368170423743664,1.2828056473493452,2.616471946242981
0.16429245686518826,1.2827517275116478,2.612976363595291
0.16490320949293988,1.2826976282226061,2.609498869345024
0.16551396212069153,1.2826433556628354,2.606039827731961
0.16612471474844315,1.2825889159752377,2.6025995966484734
0.1667354673761948,1.2825343152637825,2.599178527630692
0.16734622000394642,1.2824795595923344,2.5957769658520786
0.16795697263169804,1.2824246549835203,2.592395250119398
0.16856772525944969,1.282369607417642,2.5890337128709806
0.16917847788720128,1.2823144228316277,2.5856926801772535
0.16978923051495293,1.2822591071180247,2.582372471743498
0.17039998314270455,1.2822036661240352,2.5790734009147314
0.17101073577045617,1.2821481056505883,2.5757957746827627
0.17162148839820782,1.2820924314514517,2.5725398936952297
0.17223224102595944,1.2820366492323818,2.5693060522666875
0.17284299365371106,1.2819807646503127,2.5660945383916545
0.1734537462814627,1.2819247833125793,2.5629056337595313
0.17406449890921433,1.2818687107761788,2.5597396137714137
0.17467525153696598,1.2818125525470658,2.556596747558689
0.1752860041647176,1.2817563140794843,2.553477298003394
0.17589675679246922,1.2817000007753316,2.550381521760275
0.17650750942022086,1.2816436179835569,2.5473096692805397
0.17711826204797246,1.2815871709995927,2.5442619848371772
0.1777290146757241,1.2815306650648182,2.5412387065518853
0.17833976730347573,1.2814741053660534,2.5382400664234983
0.17895051993122735,1.2814174970350847,2.535266290357886
0.179561272558979,1.281360845148221,2.5323175981993047
0.18017202518673062,1.2813041547258777,2.5293942037631068
0.18078277781448224,1.2812474307321922,2.5264963148698216
0.18139353044223389,1.2811906780746645,2.5236241333804936
0.1820042830699855,1.2811339016038283,2.52077785523333
0.18261503569773715,1.281077106112947,2.517957670481518
0.18322578832548878,1.2810202963377364,2.5151637633322186
0.1838365409532404,1.280963476956115,2.5123963121867394
0.18444729358099204,1.2809066525879762,2.509655489681719
0.18505804620874364,1.2808498277949887,2.5069414627314415
0.18566879883649529,1.280793007080417,2.5042543925711116
0.1862795514642469,1.2807361948889686,2.501594434801124
0.18689030409199853,1.2806793956066627,2.4989617394322763
0.18750105671975018,1.2806226135607197,2.4963564509318745
0.1881118093475018,1.280565853019476,2.4937787082706953
0.18872256197525342,1.2805091181923145,2.4912286449707994
0.18933331460300507,1.2804524132296222,2.4887063891541192
0.18994406723075669,1.2803957422227619,2.4862120635918177
0.19055481985850833,1.2803391092040672,2.483745785754346
0.19116557248625995,1.2802825181468542,2.4813076678622648
0.19177632511401158,1.280225972965454,2.4788978169376303
0.19238707774176322,1.2801694775152597,2.4765163348560857
0.19299783036951482,1.2801130355927954,2.474163318399524
0.19360858299726647,1.2800566509357973,2.4718388593093215
0.19421933562501809,1.2800003272233151,2.4695430443400923
0.1948300882527697,1.2799440680758276,2.467275955313986
0.19544084088052135,1.2798878770553734,2.4650376691754365
0.19605159350827298,1.2798317576656983,2.462828258046391
0.19666234613602462,1.2797757133524155,2.460647789281933
0.19727309876377624,1.2797197475031818,2.4584963255263332
0.19788385139152787,1.2796638634478856,2.4563739247694607
0.1984946040192795,1.2796080644588501,2.4542806404035438
0.19910535664703113,1.2795523537510474,2.4522165212802465
0.19971610927478275,1.2794967344823267,2.4501816117680484
0.20032686190253438,1.279441209753654,2.4481759518099224
0.200937614530286,1.2793857826093633,2.446199576981206
0.20154836715803764,1.2793304560374192,2.444252518547781
0.20215911978578927,1.2792752329696901,2.442334803524367
0.20276987241354089,1.2792201162822323,2.440446454733086
0.20338062504129253,1.2791651087955849,2.4385874908621408
0.20399137766904415,1.279110213275072,2.4367579265246526
0.2046021302967958,1.2790554324311185,2.434957772317603
0.20521288292454742,1.27900076891957,2.4331870348809246
0.20582363555229904,1.2789462253420256,2.4314457169566044
0.2064343881800507,1.2788918042461777,2.4297338174479344
0.2070451408078023,1.2788375081261585,2.42805133147875
0.2076558934355539,1.2787833394228962,2.426398250452714
0.20826664606330555,1.278729300524479,2.4247745621126233
0.20887739869105718,1.2786753937665234,2.423180250599715
0.20948815131880882,1.2786216214325528,2.4216152965129036
0.21009890394656044,1.27856798575438,2.420079676968065
0.21070965657431207,1.2785144889124986,2.418573365657202
0.2113204092020637,1.2784611330364777,2.417096332907537
0.21193116182981533,1.2784079202053644,2.415648545740596
0.21254191445756698,1.2783548524480908,2.4142299679311034
