frequency,refractiveIndex,absorption
0.0006107526277516292,4.58702301195323,0.22923895692088836
0.0012215052555032584,4.017440515204007,0.7081592454158743
0.0018322578832548875,3.496112053610074,1.204525025961695
0.002443010511006517,3.0835797988644953,1.6457352614226881
0.003053763138758146,2.76421461009157,2.0221016911494933
0.003664515766509775,2.5150211433633607,2.3392728534553697
0.004275268394261404,2.3178101413146748,2.6053877554030396
0.004886021022013034,2.159538277509612,2.8280199922367486
0.005496773649764663,2.030969324232812,3.0136369822924243
0.006107526277516292,1.9254871094552923,3.1676799127398967
0.006718278905267922,1.8382599033469231,3.294760255048062
0.00732903153301955,1.7656819251203915,3.3988403985365903
0.00793978416077118,1.7050029156727486,3.4833699675855265
0.008550536788522809,1.6540810516838713,3.5513790370562224
0.009161289416274438,1.6112166362409757,3.605537573732657
0.009772042044026067,1.5750390581855633,3.648191955960531
0.010382794671777697,1.5444290524102011,3.6813885315881016
0.010993547299529326,1.518464327073795,3.7068920840133863
0.011604299927280955,1.4963805645107686,3.7262044066567235
0.012215052555032585,1.4775424842137315,3.7405855249998496
0.012825805182784214,1.4614215241660997,3.7510779615701475
0.013436557810535843,1.4475779857163211,3.758533088376859
0.014047310438287471,1.435646340743041,3.7636380495254587
0.0146580630660391,1.4253229301082655,3.7669417643367833
0.015268815693790731,1.4163555871436662,3.7688788748025197
0.01587956832154236,1.4085348810057936,3.7697909558521476
0.01649032094929399,1.4016867537146116,3.7699447202152156
0.017101073577045618,1.395666362476819,3.7695472581274516
0.01771182620479725,1.3903529593744195,3.768758546457385
0.018322578832548876,1.3856456556672594,3.767701560554519
0.018933331460300507,1.3814599326723045,3.7664703525644723
0.019544084088052135,1.3777247766238636,3.7651364477629397
0.020154836715803762,1.374380330733697,3.7637538754561866
0.020765589343555393,1.371375973099556,3.762363106683195
0.02137634197130702,1.3686687434883968,3.760994125578399
0.021987094599058652,1.3662220549233979,3.7596688192683922
0.02259784722681028,1.3640046372480656,3.758402834564128
0.02320859985456191,1.361989669421087,3.7572070189816387
0.023819352482313542,1.3601540653202084,3.756088538495658
0.02443010511006517,1.3584778844692686,3.7550517442509053
0.025040857737816797,1.3569438445382456,3.754098844458435
0.025651610365568428,1.3555369168882643,3.7532304251374424
0.026262362993320056,1.3542439900137906,3.75244585355374
0.026873115621071687,1.3530535886236952,3.7517435905829037
0.027483868248823314,1.35195563843039,3.7511214323184614
0.028094620876574942,1.3509412685894884,3.7505766966747247
0.028705373504326573,1.3500026452399516,3.7501063672006643
0.0293161261320782,1.349132830808643,3.749707203589552
0.029926878759829835,1.348325664721776,3.74937582625699
0.030537631387581463,1.347575661955853,3.7491087807248626
0.03114838401533309,1.3468779264997057,3.7489025862819676
0.03175913664308472,1.3462280773172268,3.7487537724092372
0.03236988927083635,1.3456221848211616,3.748658905693554
0.03298064189858798,1.3450567162109854,3.748614609360021
0.03359139452633961,1.3445284883076567,3.748617577089074
0.034202147154091235,1.344034626747031,3.748664582423404
0.03481289978184286,1.3435725305816737,3.748752484786498
0.0354236524095945,1.3431398414954905,3.7488782329136283
0.036034405037346125,1.3427344169632356,3.7490388663221195
0.03664515766509775,1.3423543067925836,3.749231515311545
0.03725591029284938,1.3419977325740875,3.7494533998774315
0.037866662920601014,1.3416630696372576,3.749701827837578
0.038477415548352635,1.341348831171817,3.7499741924038954
0.03908816817610427,1.3410536542240654,3.750267969380308
0.039698920803855904,1.3407762873209426,3.750580714126065
0.040309673431607525,1.340515579510249,3.750910058391485
0.04092042605935916,1.3402704706357178,3.7512537071073657
0.04153117868711079,1.3400399826911773,3.7516094351895197
0.04214193131486242,1.3398232121196723,3.7519750844038033
0.04275268394261404,1.3396193229418074,3.7523485603247626
0.04336343657036568,1.339427540613182,3.75272782941138
0.043974189198117304,1.3392471465241524,3.7531109162157
0.04458494182586893,1.3390774730665462,3.753495900734425
0.04519569445362056,1.3389178992017226,3.753880915908932
0.045806447081372194,1.3387678464727772,3.7542641452757533
0.04641719970912382,1.3386267754108925,3.7546438207669697
0.04702795233687545,1.3384941822920764,3.7550182206579263
0.047638704964627084,1.338369596205897,3.7553856676583575
0.048249457592378704,1.3382525764024893,3.755744527141813
0.04886021022013034,1.3381427098881449,3.756093205507822
0.049470962847881966,1.3380396092433033,3.7564301486704457
0.050081715475633594,1.3379429106398262,3.756753840666882
0.05069246810338522,1.3378522720370936,3.7570628023795907
0.051303220731136856,1.337767371538804,3.757355590365215
0.05191397335888848,1.337687905894379,3.757630795783998
0.05252472598664011,1.3376135891306813,3.7578870434232168
0.053135478614391746,1.337544151301313,3.758122990808522
0.05374623124214337,1.337479337342141,3.7583373273972565
0.054356983869895,1.3374189060229202,3.7585287738479813
0.05496773649764663,1.3373626289859548,3.7586960813608785
0.05557848912539826,1.3373102898636835,3.7588380310836986
0.056189241753149884,1.3372616834679203,3.75895343357845
0.05679999438090152,1.3372166150442195,3.7590411283440224
0.057410747008653146,1.337174899585504,3.7590999833904473
0.05802149963640477,1.3371363611996678,3.759128894860552
0.0586322522641564,1.337100832526404,3.7591267866950315
0.059243004891908035,1.3370681541989577,3.7590926103372864
0.05985375751965967,1.3370381743469335,3.759025344474506
0.06046451014741129,1.3370107481366469,3.7589239948116524
0.061075262775162925,1.3369857373458485,3.758787593875347
0.06168601540291455,1.3369630099699423,3.758615200844615
0.06229676803066618,1.3369424398570915,3.7584059014059035
0.0629075206584178,1.3369239063698373,3.7581588076296555
0.06351827328616944,1.3369072940710787,3.7578730578661346
0.06412902591392107,1.3368924924324503,3.7575478166581773
0.0647397785416727,1.336879395563311,3.7571822746687715
0.06535053116942433,1.3368679019587137,3.7567756486214843
0.06596128379717596,1.336857914264871,3.756327181251784
0.0665720364249276,1.3368493390607532,3.755836141267661
0.06718278905267921,1.336842086654577,3.7553018233177333
0.06779354168043085,1.3368360708940494,3.7547235479654235
0.06840429430818247,1.3368312089893233,3.7541006616677395
0.06901504693593409,1.3368274213477023,3.7534325367572503
0.06962579956368573,1.336824631419231,3.75271857142611
0.07023655219143736,1.336822765552349,3.7519581897108805
0.070847304819189,1.3368217528588806,3.7511508414770653
0.07145805744694061,1.3368215250876707,3.750296002402352
0.07206881007469225,1.3368220165062414,3.7493931739576487
0.07267956270244387,1.3368231637898946,3.7484418833849293
0.0732903153301955,1.3368249059177202,3.747441683671217
0.07390106795794714,1.3368271840750239,3.746392153517813
0.07451182058569876,1.336829941561718,3.7452928973041657
0.0751225732134504,1.336833123706254,3.7441435450456955
0.07573332584120203,1.3368366777847112,3.742943752345003
0.07634407846895366,1.3368405529446787,3.741693200335897
0.07695483109670527,1.336844700133603,3.7403915956198217
0.0775655837244569,1.3368490720312862,3.7390386701941223
0.07817633635220854,1.3368536229862558,3.73763418137187
0.07878708897996017,1.3368583089557369,3.7361779116927925
0.07939784160771181,1.3368630874489824,3.734669668825084
0.08000859423546343,1.336867917473732,3.7331092854577115
0.08061934686321505,1.336872759485588,3.7314966191830736
0.08123009949096668,1.336877575340114,3.7298315523697467
0.08184085211871832,1.3368823282474658,3.728113992025152
0.08245160474646994,1.3368869827293917,3.726343869648042
0.08306235737422157,1.336891504578439,3.724521141070664
0.08367311000197321,1.3368958608192216,3.7226457862904834
0.08428386262972484,1.3369000196716065,3.7207178092915685
0.08489461525747646,1.3369039505156992,3.7187372378554118
0.08550536788522808,1.3369076238584987,3.716704123361355
0.08611612051297972,1.3369110113021199,3.714618540576541
0.08672687314073135,1.3369140855134718,3.7124805874355493
0.08733762576848299,1.3369168201953028,3.710290384809687
0.08794837839623461,1.3369191900585145,3.708048076266093
0.08855913102398623,1.3369211707956654,3.705753827816805
0.08916988365173786,1.336922739055587,3.7034078276578195
0.0897806362794895,1.3369238724190309,3.7010102858984544
0.09039138890724112,1.3369245493752915,3.698561434281025
0.09100214153499275,1.3369247492997263,3.6960615258912166
0.09161289416274439,1.3369244524321267,3.693510834859147
0.09222364679049602,1.3369236398558757,3.6909096560515446
0.09283439941824764,1.336922293477845,3.68825830475515
0.09344515204599926,1.336920396008981,3.685557116351634
0.0940559046737509,1.3369179309455368,3.6828064459843457
0.09466665730150253,1.3369148825509052,3.680006668217014
0.09527740992925417,1.3369112358380186,3.6771581766849253
0.09588816255700579,1.3369069765522748,3.6742613837386244
0.09649891518475741,1.336902091154955,3.671316720080631
0.09710966781250904,1.336896566807108,3.668324634395391
0.09772042044026068,1.336890391353864,3.6652855929727775
0.09833117306801231,1.3368835533091543,3.6622000793255407
0.09894192569576393,1.3368760418408152,3.659068593800948
0.09955267832351557,1.3368678467560429,3.655891653187033
0.10016343095126719,1.336858958487189,3.6526697903137095
0.10077418357901882,1.3368493680778673,3.649403553649197
0.10138493620677044,1.336839067169358,3.646093506891981
0.10199568883452208,1.3368280479872923,3.642740228558801
0.10260644146227371,1.336816303328597,3.6393443115688684
0.10321719409002535,1.336803826548689,3.635906362824777
0.10382794671777695,1.3367906115489048,3.63242700279042
0.10443869934552859,1.3367766527641507,3.6289068650662255
0.10504945197328022,1.3367619451507633,3.625346595962152
0.10566020460103186,1.3367464841745709,3.621746854068646
0.10627095722878349,1.3367302657991444,3.6181083098261224
0.10688170985653511,1.3367132864742293,3.614431645093044
0.10749246248428675,1.3366955431243506,3.6107175527131967
0.10810321511203837,1.336677033137584,3.6069667360823057
0.10871396773979,1.3366577543544849,3.6031799087144356
0.10932472036754162,1.3366377050571716,3.5993577938084225
0.10993547299529326,1.3366168839585553,3.5955011238147634
0.11054622562304489,1.336595290191711,3.5916106400031573
0.11115697825079653,1.3365729232993888,3.5876870920310924
0.11176773087854816,1.3365497832236564,3.583731237513751
0.11237848350629977,1.3365258702956733,3.5797438415955543
0.1129892361340514,1.3365011852255928,3.5757256765235974
0.11359998876180304,1.3364757290925853,3.5716775212232927
0.11421074138955467,1.336449503334987,3.5676001608764873
0.11482149401730629,1.3364225097405653,3.5634943865023394
0.11543224664505793,1.3363947504369034,3.5593609945411537
0.11604299927280955,1.3363662278819002,3.555200786441528
0.11665375190056118,1.3363369448543863,3.5510145682509755
0.1172645045283128,1.3363069044448521,3.5468031502102804
0.11787525715606444,1.3362761100462885,3.5425673463518286
0.11848600978381607,1.3362445653451422,3.5383079741021453
0.1190967624115677,1.3362122743123777,3.5340258538887874
0.11970751503931934,1.3361792411946547,3.5297218087518867
0.12031826766707095,1.3361454705056128,3.525396663960437
0.12092902029482258,1.3361109670172682,3.5210512466336024
0.12153977292257422,1.3360757357515203,3.516686385367167
0.12215052555032585,1.3360397819717675,3.512302909865286
0.12276127817807747,1.3360031111746342,3.507901650577751
0.1233720308058291,1.3359657290818086,3.5034834383428537
0.12398278343358073,1.3359276416319887,3.499049104036037
0.12459353606133236,1.3358888549729415,3.4945994782244583
0.125204288689084,1.3358493754536724,3.4901353908275468
0.1258150413168356,1.335809209616704,3.485657670783727
0.12642579394458725,1.3357683641904696,3.4811671457233695
0.12703654657233887,1.3357268460818152,3.4766646416481204
0.12764729920009052,1.3356846623686165,3.4721509826166104
0.12825805182784214,1.3356418202925056,3.467626990436718
0.12886880445559376,1.3355983272517122,3.4630934843644274
0.1294795570833454,1.3355541907940165,3.4585512808092953
0.13009030971109703,1.335509418609817,3.454001193046674
0.13070106233884865,1.3354640185253095,3.449444030936682
0.13131181496660027,1.3354179984957804,3.4448806006499546
0.13192256759435192,1.335371366599015,3.4403117044002887
0.13253332022210354,1.3353241310288182,3.4357381401840983
0.1331440728498552,1.3352763000886498,3.4311607015268
0.13375482547760678,1.3352278821853738,3.4265801772360827
0.13436557810535843,1.335178885823122,3.4219973511621045
0.13497633073311005,1.3351293195972704,3.4174130019645914
0.1355870833608617,1.335079192188532,3.4128279028868747
0.13619783598861332,1.3350285123571612,3.4082428215367795
0.13680858861636494,1.3349772889372724,3.403658519674478
0.13741934124411656,1.3349255308312733,3.3990757530071285
0.13803009387186818,1.3348732470044102,3.3944952709903986
0.13864084649961983,1.3348204464794267,3.389917816636809
0.13925159912737145,1.334767138331335,3.3853441263307853
0.1398623517551231,1.3347133316822994,3.3807749296505403
0.14047310438287472,1.3346590356966315,3.3762109491965275
0.14108385701062634,1.3346042595758962,3.3716529004266325
0.141694609638378,1.3345490125541302,3.367101491497888
0.1423053622661296,1.334493303893168,3.36255742311471
0.14291611489388123,1.3344371428780797,3.3580213883836345
0.14352686752163288,1.3343805388127168,3.3534940726744376
0.1441376201493845,1.334323501015365,3.3489761534875484
0.14474837277713615,1.3342660388145071,3.3444683003277818
0.14535912540488774,1.3342081615446892,3.3399711745842167
0.14596987803263936,1.3341498785424954,3.3354854294161798
0.146580630660391,1.3340911991426259,3.3310117096452805
0.14719138328814263,1.3340321326740785,3.326550651653368
0.14780213591589428,1.3339726884564351,3.3221028832863664
0.1484128885436459,1.3339128757962484,3.3176690237638726
0.14902364117139752,1.3338527039835304,3.313249683594459
0.14963439379914917,1.3337921822883394,3.308845464496551
0.1502451464269008,1.3337313199574692,3.304456959324822
0.15085589905465244,1.3336701262112314,3.3000847520020185
0.15146665168240406,1.3336086102403384,3.295729417456065
0.15207740431015568,1.3335467812028794,3.2913915215624323
0.15268815693790733,1.333484648221391,3.287071621091619
0.15329890956565892,1.3334222203800221,3.2827702636616487
0.15390966219341054,1.3333595067217887,3.278487987695527
0.1545204148211622,1.3332965162459207,3.274225322383526
0.1551311674489138,1.3332332579052972,3.2699827876501812
0.15574192007666546,1.3331697406039704,3.2657608941259704
0.15635267270441708,1.3331059731947745,3.261560143123493
0.1569634253321687,1.3330419644770235,3.2573810266180936
0.15757417795992035,1.3329777231942888,3.2532240272328483
0.15818493058767197,1.3329132580322625,3.2490896182277686
0.15879568321542362,1.3328485776167007,3.244978263493145
0.15940643584317524,1.3327836905114478,3.240890417546945
0.16001718847092686,1.3327186052165383,3.236826525536142
0.1606279410986785,1.3326533301663763,3.232787023241899
0.1612386937264301,1.332587873727992,3.2287723370884978
0.16184944635418172,1.3325222441993707,3.224782884155899
0.16246019898193337,1.3324564498078575,3.2208190721958947
0.163070951609685,1.3323904987086312,3.2168812996516545
0.16368170423743664,1.33232439898325,3.212969955680716
0.16429245686518826,1.3322581586382671,3.2090854201811663
0.16490320949293988,1.3321917856039123,3.205228063821064
0.16551396212069153,1.3321252877328411,3.2013982480708707
0.16612471474844315,1.3320586727989476,3.197596325238945
0.1667354673761948,1.331991948496243,3.19382263850989
0.16734622000394642,1.3319251224377948,3.1900775219857347
0.16795697263169804,1.3318582021547265,3.186361300729817
0.16856772525944969,1.331791195095279,3.1826742908133347
0.16917847788720128,1.3317241086239284,3.179016799364398
0.16978923051495293,1.331656950020562,3.1753891246196004
0.17039998314270455,1.3315897264797085,3.171791555977918
0.17101073577045617,1.3315224451098249,3.1682243740569715
0.17162148839820782,1.3314551129326337,3.1646878507514313
0.17223224102595944,1.331387736882515,3.161182249293606
0.17284299365371106,1.3313203238059463,3.15770782431609
0.1734537462814627,1.331252880460993,3.1542648219163856
0.17406449890921433,1.3311854135168488,3.150853479723413
0.17467525153696598,1.3311179295534183,3.1474740269658894
0.1752860041647176,1.3310504350609516,3.144126684542434
0.17589675679246922,1.3309829364397165,3.14081166509337
0.17650750942022086,1.3309154399997214,3.1375291730741446
0.17711826204797246,1.3308479519604732,3.1342794048303024
0.1777290146757241,1.3307804784507826,3.131062548673928
0.17833976730347573,1.3307130255086046,3.1278787849614984
0.17895051993122735,1.3306455990809203,3.124728286173084
0.179561272558979,1.3305782050236572,3.121611216992851
0.18017202518673062,1.3305108491016429,3.1185277343907494
0.18078277781448224,1.3304435369885979,3.115477987705403
0.18139353044223389,1.330376274267161,3.112462118728062
0.1820042830699855,1.3303090664289499,3.109480261787623
0.18261503569773715,1.3302419188746517,3.106532543836607
0.18322578832548878,1.3301748369141484,3.103619084538092
0.1838365409532404,1.33010782576667,3.1007399963535005
0.18444729358099204,1.3300408905609802,3.0978953846312187
0.18505804620874364,1.3299740363355872,3.0950853476959748
0.18566879883649529,1.3299072680389865,3.0923099769389295
0.1862795514642469,1.329840590529927,3.0895693569084517
0.18689030409199853,1.3297740085777063,3.0868635654014764
0.18750105671975018,1.3297075268624874,3.0841926735554854
0.1881118093475018,1.3296411499756444,3.0815567459409525
0.18872256197525342,1.329574882420128,3.0789558406543254
0.18933331460300507,1.3295087286108542,3.076390009411389
0.18994406723075669,1.329442692875118,3.073859297641054
0.19055481985850833,1.329376779453024,3.0713637445794975
0.19116557248625995,1.3293109924979398,3.0689033833645865
0.19177632511401158,1.3292453360769692,3.0664782411305915
0.19238707774176322,1.3291798141714424,3.0640883391031326
0.19299783036951482,1.3291144306774267,3.0617336926942866
0.19360858299726647,1.3290491894062535,3.059414311597916
0.19421933562501809,1.3289840940850608,3.0571301998850364
0.1948300882527697,1.328919148357355,3.054881356099328
0.19544084088052135,1.328854355783586,3.052667773352689
0.19605159350827298,1.3287897198417358,3.0504894394207778
0.19666234613602462,1.3287252439279258,3.0483463368385895
0.19727309876377624,1.3286609313570326,3.0462384429959384
0.19788385139152787,1.3285967853633203,3.044165730232902
0.1984946040192795,1.3285328091010844,3.042128165935159
0.19910535664703113,1.328469005645306,3.0401257126291474
0.19971610927478275,1.32840537799232,3.0381583280771354
0.20032686190253438,1.328341929060492,3.036225965372053
0.200937614530286,1.3282786616909066,3.034328573032113
0.20154836715803764,1.3282155786480638,3.0324660950952116
0.20215911978578927,1.3281526826205878,3.0306384712130505
0.20276987241354089,1.3280899762219416,3.028845636744973
0.20338062504129253,1.3280274619911507,3.027087522851493
0.20399137766904415,1.3279651423935357,3.025364056587468
0.2046021302967958,1.327903019821451,3.0236751609949506
0.20521288292454742,1.3278410965950311,3.022020755195628
0.20582363555229904,1.327779374962943,3.020400754482854
0.2064343881800507,1.327717857103146,3.0188150704133214
0.2070451408078023,1.3276565451236555,3.0172636108982203
0.2076558934355539,1.3275954410633126,3.0157462802939783
0.20826664606330555,1.3275345468925595,3.0142629794925133
0.20887739869105718,1.3274738645142183,3.0128136060109845
0.20948815131880882,1.3274133957642764,3.011398054081049
0.21009890394656044,1.3273531424126708,3.0100162147375618
0.21070965657431207,1.327293106164082,3.008667975906741
0.2113204092020637,1.3272332886587266,3.0073532224937836
0.21193116182981533,1.3271736914731553,3.0060718364698795
0.21254191445756698,1.3271143161210515,3.0048236969586424
