frequency,refractiveIndex,absorption
0.0006107526277516292,2.334085531779655,0.00185421210480113
0.0012215052555032584,2.3337268100354644,0.007410525246327827
0.0018322578832548875,2.3331302675858736,0.016650023141655854
0.002443010511006517,2.332297882660014,0.02954135519970024
0.003053763138758146,2.331232400092271,0.046040998200245785
0.003664515766509775,2.329937307159693,0.06609361645601994
0.004275268394261404,2.3284168032464536,0.08963251448582651
0.004886021022013034,2.3266757638532862,0.11658017481909339
0.005496773649764663,2.324719699553121,0.14684887234978314
0.006107526277516292,2.322554710560918,0.18034135568771859
0.006718278905267922,2.320187437634144,0.21695158523449817
0.00732903153301955,2.3176250100507056,0.25656551724726834
0.00793978416077118,2.314874991423021,0.2990619229445699
0.008550536788522809,2.3119453241014307,0.3443132317432266
0.009161289416274438,2.3088442728988756,0.39218638797634214
0.009772042044026067,2.3055803688329766,0.4425437109045983
0.010382794671777697,2.3021623535341513,0.4952437484680696
0.010993547299529326,2.298599124911136,0.5501421160014132
0.011604299927280955,2.2948996846006717,0.6070923120187256
0.012215052555032585,2.291073087658944,0.6659465041319972
0.012825805182784214,2.287128394880385,0.7265562791680411
0.013436557810535843,2.283074628057275,0.7887733525633096
0.014047310438287471,2.2789207284226722,0.8524502331182511
0.0146580630660391,2.274675518451307,0.9174408401606768
0.015268815693790731,2.2703476671295326,0.9836010710824022
0.01587956832154236,2.2659456587469298,1.0507893180616277
0.01649032094929399,2.2614777652096465,1.1188669335534867
0.017101073577045618,2.2569520218293864,1.1876986448183182
0.01771182620479725,2.252376206502047,1.2571529183556518
0.018322578832548876,2.247757822156753,1.3271022756234567
0.018933331460300507,2.2431040823288444,1.3974235618471944
0.019544084088052135,2.2384218996890546,1.4679981700659286
0.020154836715803762,2.2337178773453648,1.5387122228286783
0.020765589343555393,2.2289983027230424,1.6094567141490757
0.02137634197130702,2.224269143821965,1.68012761445771
0.021987094599058652,2.219536047647608,1.7506259413659742
0.02259784722681028,2.2148043406127815,1.8208577990805979
0.02320859985456191,2.210079030710555,1.8907343892911028
0.023819352482313542,2.2053648112645363,1.960171996300571
0.02443010511006517,2.200666066070086,2.0290919490888615
0.025040857737816797,2.195986875748953,2.097420562893664
0.025651610365568428,2.1913310251495512,2.165089062772755
0.026262362993320056,2.1867020116358087,2.232033491476643
0.026873115621071687,2.182103054118263,2.298194603816513
0.027483868248823314,2.1775371026922956,2.363517749564314
0.028094620876574942,2.173006848759387,2.427952746769103
0.028705373504326573,2.1685147355182015,2.4914537472249854
0.0293161261320782,2.1640629687228032,2.5539790956742214
0.029926878759829835,2.159653527615476,2.615491184186692
0.030537631387581463,2.1552881759512683,2.6759563030150755
0.03114838401533309,2.1509684730405128,2.735344489092998
0.03175913664308472,2.146695784744107,2.793629373215336
0.03236988927083635,2.1424712943643094,2.8507880268209083
0.03298064189858798,2.138296013381274,2.906800809186291
0.03359139452633961,2.134170791992244,2.9616512157345656
0.034202147154091235,2.1300963294166997,3.0153257280675376
0.03481289978184286,2.1260731839363753,3.0678136662401543
0.0354236524095945,2.122101782644327,3.1191070437161543
0.036034405037346125,2.1181824308819044,3.1692004253688717
0.03664515766509775,2.114315321346712,3.218090788824822
0.03725591029284938,2.1105005428584978,3.265777389387606
0.037866662920601014,2.1067380887732927,3.312261628725242
0.038477415548352635,2.103027865039183,3.357546927456574
0.03908816817610427,2.0993696978897343,3.4016386017289997
0.039698920803855904,2.0957633411736074,3.44454374384414
0.040309673431607525,2.092208483320815,3.486271106953268
0.04092042605935916,2.0887047539480905,3.526830993818996
0.04153117868711079,2.0852517301072715,3.566235149612988
0.04214193131486242,2.081848942182109,3.6044966587018537
0.04275268394261404,2.0784958794399997,3.6416298453547165
0.04336343657036568,2.075191995246214,3.6776501782931477
0.043974189198117304,2.071936711948994,3.7125741789935014
0.04458494182586893,2.06872942544461,3.7464193336421947
0.04519569445362056,2.0655695094320645,3.77920400863992
0.045806447081372194,2.0624563193675716,3.8109473695455
0.04641719970912382,2.05938919612928,3.8416693033474623
0.04702795233687545,2.0563674694030434,3.8713903439519886
0.047638704964627084,2.0533904608001428,3.9001316007747113
0.048249457592378704,2.050457486718068,3.927914690325915
0.04886021022013034,2.047567860955452,3.954761670681725
0.049470962847881966,2.044720897092289,3.980694978735743
0.050081715475633594,2.0419159106465177,4.005737370131069
0.05069246810338522,2.039152221017927,4.029911861775244
0.051303220731136856,2.0364291532302596,4.053241676846496
0.05191397335888848,2.033746039482178,4.075750192204015
0.05252472598664011,2.0311022205176252,4.097460888120475
0.053135478614391746,2.0284970468258283,4.118397300258538
0.05374623124214337,2.025929879681043,4.138582973821181
0.054356983869895,2.023400092031808,4.158041419806521
0.05496773649764663,2.0209070692492825,4.176796073306901
0.05557848912539826,2.0184502097439028,4.194870253792739
0.056189241753149884,2.0160289254593677,4.212287127328933
0.05679999438090152,2.013642642252618,4.229069670673962
0.057410747008653146,2.0112908001682057,4.2452406372162645
0.05802149963640477,2.0089728536151537,4.260822524705917
0.0586322522641564,2.0066882714540513,4.275837544742689
0.059243004891908035,2.004436537001895,4.290307593984493
0.05985375751965967,2.0022171479618267,4.304254227042682
0.06046451014741129,2.0000296162846114,4.3176986310325765
0.061075262775162925,1.997873467968439,4.3306616017504345
0.06168601540291455,1.9957482428032693,4.34316352144794
0.06229676803066618,1.993653494065699,4.3552243381786555
0.0629075206584178,1.9915887881699794,4.366863546689506
0.06351827328616944,1.9895537042805738,4.378100170833615
0.06412902591392107,1.9875478338913075,4.388952747479037
0.0647397785416727,1.9855707803759297,4.399439311889529
0.06535053116942433,1.9836221585145897,4.4095773845531445
0.06596128379717596,1.9817015940004934,4.419383959434484
0.0665720364249276,1.9798087229307242,4.428875493625529
0.06718278905267921,1.9779431912849679,4.438067898370396
0.06779354168043085,1.9761046543956295,4.446976531438413
0.06840429430818247,1.9742927764125915,4.455616190818781
0.06901504693593409,1.97250722976562,4.464001109710282
0.06962579956368573,1.9707476946272322,4.472144952777719
0.07023655219143736,1.9690138583785741,4.480060813646756
0.070847304819189,1.967305415080698,4.487761213607309
0.07145805744694061,1.9656220649533866,4.495258101494535
0.07206881007469225,1.9639635138635134,4.502562854716836
0.07267956270244387,1.9623294728247245,4.509686281397404
0.0732903153301955,1.9607196575100463,4.516638623596606
0.07390106795794714,1.9591337877788895,4.523429561580632
0.07451182058569876,1.9575715872197075,4.530068219101513
0.0751225732134504,1.95603278270948,4.536563169652283
0.07573332584120203,1.9545171039909706,4.542922443660644
0.07634407846895366,1.9530242832686648,4.54915353658402
0.07695483109670527,1.9515540548240704,4.555263417867032
0.0775655837244569,1.9501061546510245,4.5612585407237995
0.07817633635220854,1.948680320111468,4.567144852704585
0.07878708897996017,1.9472762896121005,4.572927807007682
0.07939784160771181,1.9458938023021866,4.578612374496126
0.08000859423546343,1.9445325977927086,4.584203056378714
0.08061934686321505,1.9431924158969653,4.58970389751376
0.08123009949096668,1.9418729963926586,4.595118500295455
0.08184085211871832,1.9405740788053893,4.6004500390805445
0.08245160474646994,1.9392954022134579,4.605701275114137
0.08306235737422157,1.9380367050737746,4.610874571913115
0.08367311000197321,1.9367977250686335,4.6159719110654
0.08428386262972484,1.9355781989730496,4.620994908403812
0.08489461525747646,1.9343778625422923,4.625944830512092
0.08550536788522808,1.9331964504192356,4.630822611523536
0.08611612051297972,1.932033696061061,4.63562887016896
0.08672687314073135,1.9308893316848459,4.640363927034966
0.08733762576848299,1.9297630882315058,4.645027821990628
0.08794837839623461,1.9286546953475534,4.64962033174307
0.08855913102398623,1.92756388138409,4.654140987482168
0.08916988365173786,1.9264903734124137,4.658589092573764
0.0897806362794895,1.925433897255639,4.662963740264574
0.09039138890724112,1.9243941775356477,4.667263831358353
0.09100214153499275,1.9233709377347323,4.67148809182671
0.09161289416274439,1.9223639002712183,4.675635090317024
0.09222364679049602,1.9213727865883887,4.6797032555209634
0.09283439941824764,1.9203973172559852,4.68369089336809
0.09344515204599926,1.9194372120835639,4.687596204009018
0.0940559046737509,1.9184921902449803,4.691417298554601
0.09466665730150253,1.9175619704132534,4.6951522155373455
0.09527740992925417,1.9166462709050809,4.698798937063171
0.09588816255700579,1.915744809834226,4.702355404621322
0.09649891518475741,1.9148573052730633,4.705819534523184
0.09710966781250904,1.9139834754214953,4.709189232939819
0.09772042044026068,1.9131230387825,4.712462410510172
0.09833117306801231,1.9122757143435611,4.715636996493846
0.09894192569576393,1.9114412217632208,4.7187109524414685
0.09955267832351557,1.9106192815620138,4.721682285359286
0.10016343095126719,1.9098096153170412,4.724549060344198
0.10077418357901882,1.9090119458594494,4.727309412668411
0.10138493620677044,1.9082259974740827,4.729961559292179
0.10199568883452208,1.9074514961006004,4.732503809787814
0.10260644146227371,1.9066881695353384,4.734934576655829
0.10321719409002535,1.9059357476332284,4.737252385018848
0.10382794671777695,1.9051939625090863,4.73945588167956
0.10443869934552859,1.9044625487376057,4.7415438435297474
0.10504945197328022,1.9037412435513892,4.743515185299722
0.10566020460103186,1.9030297870364004,4.745368966641064
0.10627095722878349,1.9023279223241956,4.7471043985333425
0.10688170985653511,1.9016353957803542,4.748720849011707
0.10749246248428675,1.9009519571885112,4.750217848210615
0.10810321511203837,1.9002773599294465,4.751595092723239
0.10871396773979,1.8996113611546923,4.752852449275936
0.10932472036754162,1.8989537219541464,4.753989957721071
0.10993547299529326,1.8983042075172019,4.755007833351284
0.11054622562304489,1.8976625872869457,4.755906468541658
0.11115697825079653,1.8970286351069818,4.756686433727511
0.11176773087854816,1.8964021293604865,4.7573484777272315
0.11237848350629977,1.8957828531011107,4.757893527421594
0.1129892361340514,1.895170594175394,4.758322686802293
0.11359998876180304,1.8945651453363737,4.758637235405257
0.11421074138955467,1.8939663043481088,4.758838626144224
0.11482149401730629,1.8933738740808628,4.758928482563298
0.11543224664505793,1.89278766259674,4.7589085955277675
0.11604299927280955,1.892207483225581,4.758780919374186
0.11665375190056118,1.8916331546309701,4.7585475675423154
0.1172645045283128,1.891064500866236,4.758210807712569
0.11787525715606444,1.890501351420359,4.7577730564737175
0.11848600978381607,1.8899435412537453,4.757236873547512
0.1190967624115677,1.8893909108238285,4.756604955596825
0.11970751503931934,1.8888433061005327,4.75588012964554
0.12031826766707095,1.8883005785716314,4.755065346139405
0.12092902029482258,1.8877625852380904,4.754163671677172
0.12153977292257422,1.8872291885994912,4.753178281442461
0.12215052555032585,1.886700256629688,4.752112451367323
0.12276127817807747,1.8861756627428565,4.750969550058304
0.1233720308058291,1.8856552857501367,4.749753030517138
0.12398278343358073,1.8851390098070957,4.748466421687217
0.12459353606133236,1.8846267243522519,4.747113319857676
0.125204288689084,1.8841183240369508,4.745697379957411
0.1258150413168356,1.8836137086468727,4.744222306769622
0.12642579394458725,1.8831127830155117,4.74269184609874
0.12703654657233887,1.8826154569299491,4.741109775921263
0.12764729920009052,1.8821216450292946,4.739479897548998
0.12825805182784214,1.8816312666961685,4.7378060268371005
0.12886880445559376,1.8811442459416121,4.736091985464027
0.1294795570833454,1.8806605112838415,4.734341592312931
0.13009030971109703,1.880179995621259,4.7325586549817515
0.13070106233884865,1.8797026361001576,4.730746961448375
0.13131181496660027,1.8792283739775464,4.728910271917139
0.13192256759435192,1.8787571544795554,4.727052310870519
0.13253332022210354,1.8782889266558627,4.725176759349422
0.1331440728498552,1.8778236432306012,4.7232872474847465
0.13375482547760678,1.8773612604502081,4.721387347300709
0.13436557810535843,1.8769017379286568,4.719480565809277
0.13497633073311005,1.8764450384905582,4.717570338414633
0.1355870833608617,1.875991128012551,4.715660022643288
0.13619783598861332,1.875539975263458,4.713752892216582
0.13680858861636494,1.8750915517436357,4.711852131478498
0.13741934124411656,1.8746458315239642,4.709960830191695
0.13803009387186818,1.8742027910849,4.7080819787121575
0.13864084649961983,1.873762409156018,4.7062184635533235
0.13925159912737145,1.8733246665564411,4.704373063345646
0.1398623517551231,1.8728895460365673,4.702548445200038
0.14047310438287472,1.8724570321214675,4.700747161479003
0.14108385701062634,1.8720271109563327,4.698971646979989
0.141694609638378,1.8715997701543203,4.697224216531821
0.1423053622661296,1.8711749986471484,4.695507063007024
0.14291611489388123,1.8707527865387508,4.693822255746714
0.14352686752163288,1.8703331249623179,4.692171739399349
0.1441376201493845,1.8699160059409983,4.6905573331666774
0.14474837277713615,1.8695014222525468,4.688980730455514
0.14535912540488774,1.8690893672981646,4.687443498926897
0.14596987803263936,1.8686798349757832,4.685947080937962
0.146580630660391,1.8682728195579967,4.684492794367036
0.14719138328814263,1.8678683155748521,4.683081833813059
0.14780213591589428,1.867466317701677,4.6817152721597495
0.1484128885436459,1.867066820652109,4.68039406249311
0.14902364117139752,1.8666698190764721,4.679119040359823
0.14963439379914917,1.8662753074656253,4.6778909263542765
0.1502451464269008,1.865883280060387,4.6767103290200085
0.15085589905465244,1.8654937307666413,4.6755777480517455
0.15146665168240406,1.8651066530761709,4.674493577782027
0.15207740431015568,1.8647220399933002,4.673458110937349
0.15268815693790733,1.8643398839673624,4.672471542647613
0.15329890956565892,1.8639601768310234,4.671533974691163
0.15390966219341054,1.863582909744462,4.670645419958795
0.1545204148211622,1.8632080731453915,4.669805807119518
0.1551311674489138,1.8628356567048967,4.6690149854683645
0.15574192007666546,1.8624656492890463,4.6682727299401865
0.15635267270441708,1.8620980389262123,4.667578746268722
0.1569634253321687,1.861732812780032,4.666932676273672
0.15757417795992035,1.861369957127927,4.666334103256669
0.15818493058767197,1.8610094573450737,4.665782557486693
0.15879568321542362,1.8606512978937189,4.665277521756612
0.15940643584317524,1.8602954623177155,4.664818436991822
0.16001718847092686,1.8599419332421403,4.664404707891931
0.1606279410986785,1.859590692377856,4.664035708587414
0.1612386937264301,1.8592417205308507,4.663710788292253
0.16184944635418172,1.8588949976161997,4.663429276934464
0.16246019898193337,1.858550502676468,4.663190490746922
0.163070951609685,1.858208213904374,4.662993737800251
0.16368170423743664,1.857868108669527,4.662838323461237
0.16429245686518826,1.857530163549031,4.662723555759224
0.16490320949293988,1.8571943543617646,4.66264875064442
0.16551396212069153,1.8568606562061154,4.662613237122778
0.16612471474844315,1.8565290435009614,4.6626163622503745
0.1667354673761948,1.8561994900296739,4.662657495974624
0.16734622000394642,1.8558719689869236,4.662736035806423
0.16795697263169804,1.8555464530280588,4.662851411310533
0.16856772525944969,1.8552229143208263,4.663003088400758
0.16917847788720128,1.8549013245992054,4.6631905734278645
0.16978923051495293,1.8545816552191148,4.663413417048789
0.17039998314270455,1.8542638772157671,4.663671217866411
0.17101073577045617,1.8539479613624243,4.663963625829439
0.17162148839820782,1.8536338782303268,4.664290345383432
0.17223224102595944,1.8533215982495597,4.6646511383652935
0.17284299365371106,1.8530110917706206,4.665045826631943
0.1734537462814627,1.8527023291264597,4.6654742944183925
0.17406449890921433,1.8523952806947592,4.665936490418013
0.17467525153696598,1.8520899169602345,4.6664324295808175
0.1752860041647176,1.851786208576724,4.666962194625051
0.17589675679246922,1.8514841264288548,4.66752593725981
0.17650750942022086,1.8511836416930663,4.668123879115367
0.17711826204797246,1.8508847258977916,4.6687563123809
0.1777290146757241,1.8505873509825785,4.669423600148526
0.17833976730347573,1.8502914893559665,4.670126176464756
0.17895051993122735,1.8499971139519196,4.670864546089663
0.179561272558979,1.8497041982846332,4.6716392839678615
0.18017202518673062,1.8494127165015442,4.672451034412757
0.18078277781448224,1.8491226434343653,4.673300510009678
0.18139353044223389,1.8488339546479895,4.67418849024133
0.1820042830699855,1.8485466264871113,4.67511581984332
0.18261503569773715,1.8482606361204248,4.676083406894779
0.18322578832548878,1.8479759615822553,4.677092220652391
0.1838365409532404,1.8476925818115106,4.6781432891364005
0.18444729358099204,1.847410476687835,4.679237696476741
0.18505804620874364,1.8471296270648552,4.680376580030415
0.18566879883649529,1.8468500148004336,4.681561127279268
0.1862795514642469,1.8465716227838413,4.682792572520686
0.18689030409199853,1.8462944349597765,4.684072193361906
0.18750105671975018,1.846018436349169,4.685401307031292
0.1881118093475018,1.8457436130667217,4.686781266519155
0.18872256197525342,1.8454699523351443,4.688213456561319
0.18933331460300507,1.8451974424960553,4.689699289480476
0.18994406723075669,1.8449260730175316,4.6912402008984575
0.19055481985850833,1.8446558344983028,4.692837645334948
0.19116557248625995,1.8443867186685874,4.6944930917078835
0.19177632511401158,1.8441187183875944,4.696208018750083
0.19238707774176322,1.8438518276377123,4.697983910359083
0.19299783036951482,1.8435860415154184,4.699822250894151
0.19360858299726647,1.8433213562189645,4.701724520438494
0.19421933562501809,1.8430577690328855,4.703692190040345
0.1948300882527697,1.8427952783094024,4.705726716951044
0.19544084088052135,1.8425338834468001,4.707829539874378
0.19605159350827298,1.8422735848648544,4.7100020742441675
0.19666234613602462,1.8420143839774163,4.712245707544951
0.19727309876377624,1.841756283162241,4.714561794691796
0.19788385139152787,1.8414992857281884,4.716951653484309
0.1984946040192795,1.8412433958798977,4.719416560149606
0.19910535664703113,1.8409886186800746,4.72195774498926
0.19971610927478275,1.840734960009515,4.724576388143551
0.20032686190253438,1.8404824265250055,4.727273615488169
0.200937614530286,1.840231025615247,4.730050494674796
0.20154836715803764,1.8399807653549451,4.7329080313302345
0.20215911978578927,1.8397316544572284,4.7358471654244285
0.20276987241354089,1.8394837022245423,4.738868767820121
0.20338062504129253,1.8392369184981878,4.741973637014656
0.20399137766904415,1.8389913136066676,4.745162496084346
0.2046021302967958,1.838746898312998,4.74843598983983
0.20521288292454742,1.8385036837611652,4.7517946822034585
0.20582363555229904,1.8382616814218875,4.7552390538142095
0.2064343881800507,1.8380209030378551,4.758769499868927
0.2070451408078023,1.8377813605686184,4.762386328206202
0.2076558934355539,1.837543066135292,4.766089757637873
0.20826664606330555,1.8373060319652403,4.769879916533223
0.20887739869105718,1.8370702703369182,4.773756841660779
0.20948815131880882,1.8368357935250226,4.777720477288854
0.21009890394656044,1.8366026137461189,4.781770674549311
0.21070965657431207,1.8363707431049074,4.785907191064304
0.2113204092020637,1.8361401935412736,4.790129690837796
0.21193116182981533,1.83591097677828,4.794437744410646
0.21254191445756698,1.835683104271244,4.798830829278832
0.2131526670853186,1.8354565871580453,4.803308330572814
0.21376341971307022,1.8352314362107929,4.807869541995269
