frequency,refractiveIndex,absorption
0.0006107526277516292,2.567219793089098,0.003535235622264728
0.0012215052555032584,2.5664676156880257,0.014125765460689917
0.0018322578832548875,2.5652177832185,0.031726238992532324
0.002443010511006517,2.5634759389800417,0.056261669318651404
0.003053763138758146,2.561249881999028,0.08762831333221381
0.003664515766509775,2.5585494686485455,0.12569487309050334
0.004275268394261404,2.555386490586818,0.17030398914321918
0.004886021022013034,2.551774532062231,0.2212739904034947
0.005496773649764663,2.5477288100307005,0.2784008604211745
0.006107526277516292,2.543266000790487,0.34146037675232266
0.006718278905267922,2.5384040569588424,0.4102103785437325
0.00732903153301955,2.5331620185991,0.4843931174116142
0.00793978416077118,2.5275598221688282,0.5637376480602524
0.008550536788522809,2.5216181107159548,0.6479622176719201
0.009161289416274438,2.5153580484220726,0.7367766166767685
0.009772042044026067,2.5088011422019703,0.8298844578315461
0.010382794671777697,2.5019690726393193,0.9269853553467154
0.010993547299529326,2.4948835360914132,1.0277769808613042
0.011604299927280955,2.4875660993502886,1.1319569781559833
0.012215052555032585,2.480038067819641,1.2392247234303009
0.012825805182784214,2.472320367769701,1.3492829226011016
0.013436557810535843,2.4644334428746837,1.4618390412920612
0.014047310438287471,2.456397164926125,1.5766065669056553
0.0146580630660391,2.44823075835277,1.6933061053555116
0.015268815693790731,2.4399527379647483,1.811666317677569
0.01587956832154236,2.431580859174352,1.9314247038436922
0.01649032094929399,2.4231320798250535,2.0523282427009586
0.017101073577045618,2.414622532679872,2.1741338980973057
0.01771182620479725,2.4060675075750666,2.296609001980102
0.018322578832548876,2.3974814422299366,2.4195315256246226
0.018933331460300507,2.388877920713321,2.542690250220822
0.019544084088052135,2.380269678596777,2.665884847873721
0.020154836715803762,2.3716686138693244,2.788925883707864
0.020765589343555393,2.3630858027441555,2.9116347492539782
0.02137634197130702,2.354531519551183,3.0338435366810073
0.021987094599058652,2.346015259976626,3.1553948627507378
0.02259784722681028,2.337545766980466,3.2761416506488765
0.02320859985456191,2.329131058791671,3.3959468771070296
0.023819352482313542,2.32077845844873,3.51468329149683
0.02443010511006517,2.3124946244174467,3.6322331128634815
0.025040857737816797,2.304285581878815,3.7484877101838263
0.025651610365568428,2.2961567543361734,3.863347270490524
0.026262362993320056,2.288112995242689,3.9767204589057403
0.026873115621071687,2.280158619397234,4.088524074075648
0.027483868248823314,2.2722974338990642,4.198682701994555
0.028094620876574942,2.2645327684893335,4.3071283707514
0.028705373504326573,2.2568675051409204,4.413800208324727
0.0293161261320782,2.2493041067870956,4.518644105186526
0.029926878759829835,2.2418446451050413,4.621612383155598
0.030537631387581463,2.2344908272920523,4.7226634716564915
0.03114838401533309,2.227244021791014,4.821761592295348
0.03175913664308472,2.22010528293758,4.918876452447806
0.03236988927083635,2.213075374514833,5.013982948371291
0.03298064189858798,2.206154792212339,5.107060878195263
0.03359139452633961,2.199343784995592,5.198094665008717
0.034202147154091235,2.1926423753993127,5.287073090151231
0.03481289978184286,2.1860503787640178,5.373989036718844
0.0354236524095945,2.1795674214399394,5.458839243217383
0.036034405037346125,2.1731929579860245,5.541624067231736
0.03664515766509775,2.166926287394351,5.622347258926707
0.03725591029284938,2.160766568372342,5.701015744154553
0.037866662920601014,2.154712833716298,5.777639416910707
0.038477415548352635,2.148764003810683,5.852230940855895
0.03908816817610427,2.1429188992877717,5.9248055596036835
0.039698920803855904,2.137176252882372,5.995380915461672
0.040309673431607525,2.1315347205159583,6.063976876305733
0.04092042605935916,2.1259928916440956,6.130615370265116
0.04153117868711079,2.120549298900326,6.195320227894623
0.04214193131486242,2.1152024270688883,6.258117031514119
0.04275268394261404,2.1099507214177793,6.31903297140059
0.04336343657036568,2.1047925954227047,6.378096708525086
0.043974189198117304,2.0997264379114724,6.435338243535609
0.04458494182586893,2.0947506196573937,6.490788791697051
0.04519569445362056,2.0898634994492573,6.544480663510036
0.045806447081372194,2.085063429664431,6.596447150742568
0.04641719970912382,2.0803487613706486,6.646722417619898
0.04702795233687545,2.075717848981152,6.695341396931213
0.047638704964627084,2.0711690544868055,6.7423396908240845
0.048249457592378704,2.066700751288026,6.787753476070398
0.04886021022013034,2.062311327648405,6.8316194136005235
0.049470962847881966,2.057999189791098,6.873974562114522
0.050081715475633594,2.0537627646582437,6.914856295592391
0.05069246810338522,2.049600502352904,6.954302224536535
0.051303220731136856,2.0455108782822258,6.992350120791637
0.05191397335888848,2.0414923950198673,7.029037845799094
0.05252472598664011,2.037543583904978,7.064403282152452
0.053135478614391746,2.0336630063943852,7.098484268332063
0.05374623124214337,2.0298492551839824,7.1313185365062415
0.054356983869895,2.026100955114675,7.1629436532948665
0.05496773649764663,2.0224167638776684,7.193396963401557
0.05557848912539826,2.0187953725332384,7.222715536026281
0.056189241753149884,2.0152355058566247,7.250936113980313
0.05679999438090152,2.0117359225240445,7.278095065429097
0.057410747008653146,2.008295415151377,7.304228338198427
0.05802149963640477,2.0049128101974474,7.3293714165810515
0.0586322522641564,2.0015869677434037,7.3535592805893195
0.059243004891908035,1.9983167811591147,7.376826367601488
0.05985375751965967,1.9951011766670614,7.3992065363539155
0.06046451014741129,1.9919391128136954,7.420733033235733
0.061075262775162925,1.9888295798577702,7.441438460843423
0.06168601540291455,1.9857715990846871,7.461354748757172
0.06229676803066618,1.9827642220554589,7.480513126501121
0.0629075206584178,1.9798065297984202,7.498944098652086
0.06351827328616944,1.976897631951431,7.51667742206233
0.06412902591392107,1.9740366658618522,7.5337420851622525
0.0647397785416727,1.971222795651183,7.550166289309607
0.06535053116942433,1.9684552112508553,7.565977432151928
0.06596128379717596,1.965733127415263,7.581202092968956
0.0665720364249276,1.9630557827177597,7.595866019960384
0.06718278905267921,1.9604224385349522,7.609994119445558
0.06779354168043085,1.9578323780242985,7.623610446938952
0.06840429430818247,1.9552849050996215,7.636738200065531
0.06901504693593409,1.9527793434088758,7.649399713279304
0.06962579956368573,1.9503150353181091,7.661616454345322
0.07023655219143736,1.9478913409053382,7.673409022547756
0.070847304819189,1.945507636967641,7.684797148580587
0.07145805744694061,1.9431633160446025,7.695799696081177
0.07206881007469225,1.9408577854608708,7.706434664761559
0.07267956270244387,1.9385904663903804,7.716719195093465
0.0732903153301955,1.9363607929445121,7.726669574500867
0.07390106795794714,1.934168211286239,7.736301245012719
0.07451182058569876,1.9320121787720406,7.745628812326944
0.0751225732134504,1.9298921631232129,7.754666056236665
0.07573332584120203,1.9278076416279093,7.763425942366787
0.07634407846895366,1.9257581003751303,7.77192063516971
0.07695483109670527,1.9237430335216472,7.780161512127001
0.0775655837244569,1.9217619425926746,7.7881591791029114
0.07817633635220854,1.9198143358169582,7.795923486795192
0.07878708897996017,1.9178997274967817,7.803463548227551
0.07939784160771181,1.9160176374132394,7.810787757227644
0.08000859423546343,1.9141675902670032,7.81790380783371
0.08061934686321505,1.9123491151546725,7.8248187145721175
0.08123009949096668,1.9105617450806938,7.831538833548738
0.08184085211871832,1.9088050165046964,7.838069884294889
0.08245160474646994,1.9070784689240259,7.84441697231015
0.08306235737422157,1.9053816444911322,7.850584612242888
0.08367311000197321,1.9037140876653993,7.856576751649315
0.08428386262972484,1.9020753448989116,7.862396795272762
0.08489461525747646,1.9004649643555864,7.868047629783013
0.08550536788522808,1.8988824956630272,7.873531648917918
0.08611612051297972,1.8973274896963912,7.878850778967304
0.08672687314073135,1.8957994983935111,7.884006504541471
0.08733762576848299,1.8942980746004463,7.888999894564806
0.08794837839623461,1.8928227719466066,7.893831628437308
0.08855913102398623,1.8913731447485407,7.898502022306244
0.08916988365173786,1.8899487479414299,7.903011055389528
0.0897806362794895,1.8885491370373173,7.9073583962959955
0.09039138890724112,1.8871738681090455,7.911543429284858
0.09100214153499275,1.8858224977988638,7.915565280409917
0.09161289416274439,1.8844945833506264,7.919422843493348
0.09222364679049602,1.883189682664492,7.923114805875526
0.09283439941824764,1.8819073543730114,7.926639673887821
0.09344515204599926,1.880647157937461,7.929995797996621
0.0940559046737509,1.879408653763282,7.933181397567357
0.09466665730150253,1.8781914033334652,7.936194585199652
0.09527740992925417,1.8769949693587045,7.939033390584036
0.09588816255700579,1.875818915943139,7.9416957838341755
0.09649891518475741,1.8746628087645052,7.94417969824834
0.09710966781250904,1.873526215267498,7.946483052456193
0.09772042044026068,1.8724087048691602,7.948603771908123
0.09833117306801231,1.8713098491750946,7.950539809667017
0.09894192569576393,1.8702292222053212,7.952289166462255
0.09955267832351557,1.8691664006285862,7.953849909970014
0.10016343095126719,1.8681209640039436,7.9552201932839814
0.10077418357901882,1.8670924950284418,7.956398272544015
0.10138493620677044,1.8660805797897444,7.957382523690908
0.10199568883452208,1.8650848080225542,7.958171458320445
0.10260644146227371,1.8641047733676812,7.958763738608336
0.10321719409002535,1.8631400736326653,7.9591581912840175
0.10382794671777695,1.862190311052831,7.959353820631404
0.10443869934552859,1.8612550925517095,7.959349820497417
0.10504945197328022,1.8603340299997768,7.959145585293286
0.10566020460103186,1.8594267404704692,7.958740719974535
0.10627095722878349,1.858532846492481,7.958135048989467
0.10688170985653511,1.857651976297379,7.957328624188414
0.10749246248428675,1.8567837640615847,7.956321731688977
0.10810321511203837,1.855927850141823,7.955114897694911
0.10871396773979,1.8550838813031783,7.953708893270351
0.10932472036754162,1.8542515109389106,7.952104738072601
0.10993547299529326,1.853430399281258,7.950303703050371
0.11054622562304489,1.8526202136024683,7.948307312117759
0.11115697825079653,1.8518206284053538,7.946117342815301
0.11176773087854816,1.8510313256027213,7.9437358259753035
0.11237848350629977,1.8502519946850506,7.941165044407623
0.1129892361340514,1.849482332875871,7.938407530628714
0.11359998876180304,1.8487220452743087,7.935466063656189
0.11421074138955467,1.8479708449843568,7.932343664896219
0.11482149401730629,1.8472284532304368,7.929043593151418
0.11543224664505793,1.8464945994589124,7.925569338781605
0.11604299927280955,1.8457690214252302,7.921924617049598
0.11665375190056118,1.8450514652664478,7.918113360688878
0.1172645045283128,1.844341685558938,7.9141397117297165
0.11787525715606444,1.8436394453611302,7.910008012624049
0.11848600978381607,1.842944516241195,7.905722796710193
0.1190967624115677,1.842256678289624,7.901288778060352
0.11970751503931934,1.8415757201167278,7.896710840755146
0.12031826766707095,1.840901438835107,7.891994027631092
0.12092902029482258,1.8402336400272121,7.887143528547291
0.12153977292257422,1.839572137698163,7.8821646682200734
0.12215052555032585,1.8389167542140257,7.877062893672648
0.12276127817807747,1.8382673202258177,7.871843761349651
0.1233720308058291,1.8376236745795393,7.866512923946347
0.12398278343358073,1.836985664212575,7.861076117000888
0.12459353606133236,1.8363531440368575,7.855539145300533
0.125204288689084,1.8357259768092153,7.849907869150675
0.1258150413168356,1.835104032989371,7.844188190556447
0.12642579394458725,1.8344871905860844,7.838386039364748
0.12703654657233887,1.8338753349919716,7.832507359415901
0.12764729920009052,1.8332683588075565,7.8265580947513955
0.12825805182784214,1.8326661616551416,7.820544175924055
0.12886880445559376,1.8320686499831094,7.814471506456788
0.1294795570833454,1.8314757368612782,7.808345949492119
0.13009030971109703,1.8308873417679714,7.802173314677115
0.13070106233884865,1.8303033903694546,7.795959345322588
0.13131181496660027,1.8297238142924315,7.789709705877974
0.13192256759435192,1.829148550890276,7.783429969757773
0.13253332022210354,1.828577543003705,7.777125607556981
0.1331440728498552,1.8280107387165887,7.770801975687671
0.13375482547760678,1.82744809110761,7.764464305470575
0.13436557810535843,1.826889557998467,7.758117692709063
0.13497633073311005,1.8263351016993297,7.751767087776085
0.1355870833608617,1.8257846887522464,7.74541728623655
0.13619783598861332,1.825238289673184,7.7390729200305195
0.13680858861636494,1.824695878693389,7.732738449237661
0.13741934124411656,1.8241574335007407,7.726418154441135
0.13803009387186818,1.8236229349817403,7.720116129707738
0.13864084649961983,1.8230923669647943,7.713836276199091
0.13925159912737145,1.8225657159654027,7.707582296424258
0.1398623517551231,1.8220429709338597,7.701357689144873
0.14047310438287472,1.8215241230060615,7.695165744939321
0.14108385701062634,1.821009165257971,7.689009542431141
0.141694609638378,1.8204980924642962,7.682891945184985
0.1423053622661296,1.8199909008618858,7.676815599270495
0.14291611489388123,1.8194875879183487,7.670782931492972
0.14352686752163288,1.8189881521063553,7.664796148287666
0.1441376201493845,1.8184925926840692,7.658857235272087
0.14474837277713615,1.8180009094821217,7.652967957449369
0.14535912540488774,1.8175131026975124,7.647129860052884
0.14596987803263936,1.8170291726948105,7.641344270022694
0.146580630660391,1.816549119814972,7.635612298099383
0.14719138328814263,1.8160729441920889,7.629934841522525
0.14780213591589428,1.81560064557834,7.6243125873171325
0.1484128885436459,1.8151322231774,7.618746016151065
0.14902364117139752,1.814667675486514,7.613235406744773
0.14963439379914917,1.814207000147445,7.607780840813344
0.1502451464269008,1.8137501938064442,7.602382208519538
0.15085589905465244,1.8132972519833956,7.597039214415372
0.15146665168240406,1.812848168950236,7.591751383848913
0.15207740431015568,1.8124029376187372,7.586518069811802
0.15268815693790733,1.8119615494377086,7.581338460202265
0.15329890956565892,1.8115239942996582,7.576211585477389
0.15390966219341054,1.811090260456911,7.571136326667128
0.1545204148211622,1.810660334447177,7.566111423724143
0.1551311674489138,1.8102342010285237,7.561135484179209
0.15574192007666546,1.8098118431236956,7.55620699207568
0.15635267270441708,1.809393241773692,7.551324317152263
0.1569634253321687,1.808978376100501,7.546485724245819
0.15757417795992035,1.8085672232788572,7.541689382884299
0.15818493058767197,1.8081597585168896,7.53693337704008
0.15879568321542362,1.8077559550454767,7.532215715013442
0.15940643584317524,1.8073557841161403,7.527534339417162
0.16001718847092686,1.806959215007269,7.522887137231032
0.1606279410986785,1.8065662150384567,7.5182719498982316
0.1612386937264301,1.8061767495927208,7.513686583432533
0.16184944635418172,1.8057907821463546,7.50912881850769
0.16246019898193337,1.8054082743061444,7.5045964205002065
0.163070951609685,1.8050291858536864,7.500087149456199
0.16368170423743664,1.804653474796503,7.495598769955279
0.16429245686518826,1.8042810974256693,7.4911290608429075
0.16490320949293988,1.803912008379624,7.486675824804143
0.16551396212069153,1.8035461607138645,7.482236897753784
0.16612471474844315,1.8031835059761765,7.4778101580151075
0.1667354673761948,1.80282399428707,7.473393535264251
0.16734622000394642,1.8024675744250738,7.468985019214562
0.16795697263169804,1.802114193916537,7.464582668019272
0.16856772525944969,1.8017637991295763,7.4601846163683225
0.16917847788720128,1.80141633537181,7.455789083259601
0.16978923051495293,1.8010717469915085,7.4513943794237845
0.17039998314270455,1.800729977481794,7.446998914383247
0.17101073577045617,1.8003909695875144,7.442601203126849
0.17162148839820782,1.80005466541442,7.438199872385046
0.17223224102595944,1.7997210065402662,7.433793666487367
0.17284299365371106,1.7993899341274717,7.429381452789822
0.1734537462814627,1.799061389036954,7.424962226657936
0.17406449890921433,1.7987353119427771,7.420535115993659
0.17467525153696598,1.7984116434472392,7.416099385296181
0.1752860041647176,1.7980903241960384,7.411654439246723
0.17589675679246922,1.7977712949931581,7.40719982581026
0.17650750942022086,1.79745449691511,7.40273523884731
0.17711826204797246,1.7971398714242013,7.398260520231409
0.1777290146757241,1.7968273604804688,7.393775661468116
0.17833976730347573,1.7965169066519613,7.3892808048145415
0.17895051993122735,1.796208453223034,7.384776243897804
0.179561272558979,1.7959019443003494,7.380262423834488
0.18017202518673062,1.7955973249162749,7.375739940852357
0.18078277781448224,1.7952945411293848,7.371209541419182
0.18139353044223389,1.7949935401217845,7.366672120883619
0.1820042830699855,1.794694270292987,7.362128721634426
0.18261503569773715,1.7943966813500867,7.357580530787292
0.18322578832548878,1.7941007243939828,7.3530288774076356
0.1838365409532404,1.7938063520014287,7.348475229280963
0.18444729358099204,1.793513518302691,7.3439211892430185
0.18505804620874364,1.7932221790546157,7.339368491082601
0.18566879883649529,1.7929322917089232,7.3348189950329115
0.1862795514642469,1.7926438154755628,7.330274682866094
0.18689030409199853,1.7923567113809762,7.325737652608791
0.18750105671975018,1.7920709423211318,7.3212101128974485
0.1881118093475018,1.7917864731092226,7.316694376990754
0.18872256197525342,1.7915032705179157,7.3121928564614
0.18933331460300507,1.7912213033160824,7.307708054587093
0.18994406723075669,1.7909405422999367,7.303242559462858
0.19055481985850833,1.7906609603185364,7.29879903685755
0.19116557248625995,1.7903825322936229,7.294380222838037
0.19177632511401158,1.7901052352337776,7.289988916184112
0.19238707774176322,1.7898290482429133,7.28562797062026
0.19299783036951482,1.7895539525231101,7.28130028688732
0.19360858299726647,1.789279931371847,7.277008804680829
0.19421933562501809,1.7890069701736777,7.2727564944810705
0.1948300882527697,1.7887350563864306,7.268546349300504
0.19544084088052135,1.7884641795220158,7.264381376374344
0.19605159350827298,1.7881943311219504,7.260264588821149
0.19666234613602462,1.787925504727714,7.256198997297684
0.19727309876377624,1.7876576958460804,7.2521876016757965
0.19788385139152787,1.7873909019095595,7.24823338276434
0.1984946040192795,1.7871251222321283,7.244339294104332
0.19910535664703113,1.7868603579604077,7.240508253858591
0.19971610927478275,1.7865966120204888,7.236743136824089
0.20032686190253438,1.7863338890605942,7.233046766586995
0.200937614530286,1.7860721953897893,7.22942190784674
0.20154836715803764,1.78581153891296,7.225871258929501
0.20215911978578927,1.7855519290622843,7.2223974445137955
0.20276987241354089,1.7852933767254322,7.219003008588527
0.20338062504129253,1.7850358941707385,7.21569040766433
0.20399137766904415,1.784779494969595,7.212462004256177
0.2046021302967958,1.7845241939163163,7.209320060656151
0.20521288292454742,1.784270006945742,7.206266733013095
0.20582363555229904,1.7840169510488308,7.203304065735176
0.2064343881800507,1.783765044186519,7.200433986229615
0.2070451408078023,1.7835143052021045,7.197658299994412
0.2076558934355539,1.7832647537324295,7.194978686073069
0.20826664606330555,1.7830164101181274,7.19239669288446
0.20887739869105718,1.7827692953132,7.18991373443762
0.20948815131880882,1.7825234307941955,7.187531086939834
0.21009890394656044,1.7822788384692487,7.185249885805593
0.21070965657431207,1.7820355405872426,7.183071123072611
0.2113204092020637,1.781793559647348,7.1809956452296
0.21193116182981533,1.7815529183092,7.179024151459251
0.21254191445756698,1.7813136393039462,7.177157192298451
0.2131526670853186,1.7810757453464177,7.175395168717626
0.21376341971307022,1.780839259048652,7.173738331617112
0.21437417234082187,1.7806042028349942,7.172186781740945
