frequency,refractiveIndex,absorption
0.0006107526277516292,2.5415480497427816,0.00289163264382101
0.0012215052555032584,2.5409698918763506,0.011555751582218212
0.0018322578832548875,2.5400087516578367,0.025960127081852497
0.002443010511006517,2.5386682856042886,0.0460513981593821
0.003053763138758146,2.5369535578265494,0.07175559765659899
0.003664515766509775,2.534870986460865,0.10297887207125006
0.004275268394261404,2.5324282767983766,0.13960838153376764
0.004886021022013034,2.5296343425123196,0.18151336205370364
0.005496773649764663,2.526499216587343,0.22854632950444342
0.006107526277516292,2.5230339537051147,0.2805444028366534
0.006718278905267922,2.5192505259333253,0.33733072274148385
0.00732903153301955,2.515161713601426,0.398715941422874
0.00793978416077118,2.510780993228756,0.4644997592532475
0.008550536788522809,2.506122424304023,0.5344724848200259
0.009161289416274438,2.501200536606117,0.6084165961447529
0.009772042044026067,2.496030219612417,0.6861082825781036
0.010382794671777697,2.4906266153705197,0.7673189489431811
0.010993547299529326,2.485005016021271,0.851816665812042
0.011604299927280955,2.479180766962851,0.9393675522576033
0.012215052555032585,2.473169176445243,1.0297370799309802
0.012825805182784214,2.466985432188146,1.122691289792462
0.013436557810535843,2.4606445254285307,1.2179979152026577
0.014047310438287471,2.4541611826311414,1.3154274073039764
0.0146580630660391,2.4475498049391726,1.414753860650283
0.015268815693790731,2.440824415305269,1.5157558388464618
0.01587956832154236,2.4339986131258247,1.6182171015242421
0.01649032094929399,2.4270855361044528,1.7219272353006878
0.017101073577045618,2.420097828992992,1.8266821924459746
0.01771182620479725,2.413047618799247,1.93228474183742
0.018322578832548876,2.4059464960084664,2.0385448374143875
0.018933331460300507,2.3988055013385305,2.145279909793155
0.019544084088052135,2.391635117535052,2.252315086974083
0.020154836715803762,2.3844452657100343,2.3594833501982717
0.020765589343555393,2.377245305734696,2.4666256310107277
0.02137634197130702,2.370044040211584,2.573590855483418
0.021987094599058652,2.3628497215713833,2.680235941364597
0.02259784722681028,2.3556700618647297,2.7864257536706662
0.02320859985456191,2.3485122448470603,2.892033023938188
0.023819352482313542,2.3413829399844586,2.9969382380236023
0.02443010511006517,2.33428831803896,3.1010294969863033
0.025040857737816797,2.3272340679229315,3.2042023552310828
0.025651610365568428,2.320225414542307,3.306359639722866
0.026262362993320056,2.313267137378091,3.407411253731723
0.026873115621071687,2.306363589583551,3.5072739682201672
0.027483868248823314,2.299518717401086,3.6058712036557816
0.028094620876574942,2.292736079727417,3.7031328047192926
0.028705373504326573,2.2860188676786786,3.7989948100874478
0.0293161261320782,2.2793699240278906,3.8933992191980704
0.029926878759829835,2.2727917624063037,3.9862937576558375
0.030537631387581463,2.2662865861773454,4.07763164270845
0.03114838401533309,2.2598563069072504,4.167371350016625
0.03175913664308472,2.253502562370225,4.255476382753351
0.03236988927083635,2.2472267340380507,4.341915043900208
0.03298064189858798,2.2410299640148486,4.426660212458998
0.03359139452633961,2.2349131713869106,4.509689124163411
0.034202147154091235,2.2288770679657595,4.590983157158267
0.03481289978184286,2.222922173409539,4.670527623010733
0.0354236524095945,2.2170488297138804,4.748311563327759
0.036034405037346125,2.211257215068547,4.824327552175771
0.03664515766509775,2.2055473570804973,4.898571504431544
0.03725591029284938,2.199919145367668,4.971042490134933
0.037866662920601014,2.19437234353086,5.041742554865644
0.038477415548352635,2.1889066005136,5.110676546124457
0.03908816817610427,2.183521461361926,5.177851945664883
0.039698920803855904,2.1782163773977197,5.243278707693354
0.040309673431607525,2.1729907158204975,5.306969102831988
0.04092042605935916,2.1678437687536545,5.368937567721492
0.04153117868711079,2.162774761751847,5.429200560125455
0.04214193131486242,2.1577828617868526,5.48777641938868
0.04275268394261404,2.1528671847295633,5.544685232093825
0.04336343657036568,2.148026802346048,5.59994870275614
0.043974189198117304,2.1432607488257083,5.6535900293943175
0.04458494182586893,2.138568026859544,5.705633783813971
0.04519569445362056,2.1339476132865265,5.756105796443259
0.045806447081372194,2.129398464325855,5.805033045561316
0.04641719970912382,2.1249195204127074,5.852443550765101
0.04702795233687545,2.120509710654871,5.898366270524744
0.047638704964627084,2.116167956927274,5.942831003683623
0.048249457592378704,2.111893177621202,5.985868294763954
0.04886021022013034,2.107684291064613,6.027509342948173
0.049470962847881966,2.1035402186295915,6.067785914609947
0.050081715475633594,2.0994598875426336,6.10673025927861
0.05069246810338522,2.09544223341309,6.144375028926017
0.051303220731136856,2.0914862024946337,6.180753200472396
0.05191397335888848,2.087590753694341,6.215898001415815
0.05252472598664011,2.0837548603434533,6.249842838494622
0.053135478614391746,2.0799775117435746,6.282621229300634
0.05374623124214337,2.076257714501631,6.314266736766262
0.054356983869895,2.072594493666479,6.344812906454267
0.05496773649764663,2.0689868936797153,6.3742932065855324
0.05557848912539826,2.065433979152775,6.40274097074406
0.056189241753149884,2.0619348354820466,6.430189343204555
0.05679999438090152,2.058488569313293,6.456671226830527
0.057410747008653146,2.055094308866305,6.482219233496631
0.05802149963640477,2.0517512041302925,6.506865636990879
0.0586322522641564,2.048458426940122,6.53064232835618
0.059243004891908035,2.045215170943136,6.553580773633124
0.05985375751965967,2.0420206514658723,6.575711973967881
0.06046451014741129,2.0388741052896364,6.5970664280512565
0.061075262775162925,2.0357747903434804,6.617674096855954
0.06168601540291455,2.0327219853227705,6.637564370640729
0.06229676803066618,2.029714989241152,6.656766038190035
0.0629075206584178,2.026753120923331,6.675307258259104
0.06351827328616944,2.0238357184457563,6.693215533194013
0.06412902591392107,2.020962138531892,6.710517684695957
0.0647397785416727,2.01813175590845,6.727239831699507
0.06535053116942433,2.0153439626285743,6.74340737033296
0.06596128379717596,2.012598167367639,6.7590449559288555
0.0665720364249276,2.009893794697018,6.774176487052106
0.06718278905267921,2.0072302843407877,6.788825091510946
0.06779354168043085,2.0046070904200954,6.803013114316154
0.06840429430818247,2.0020236806895495,6.816762107552229
0.06901504693593409,1.9994795357697082,6.83009282212262
0.06962579956368573,1.9969741483794767,6.843025201330066
0.07023655219143736,1.9945070225719062,6.855578376252255
0.070847304819189,1.992077672976632,6.867770662870643
0.07145805744694061,1.9896856240519336,6.879619560909437
0.07206881007469225,1.9873304093491395,6.89114175434142
0.07267956270244387,1.9850115707918514,6.902353113513209
0.0732903153301955,1.9827286579722503,6.913268698845209
0.07390106795794714,1.9804812274665031,6.923902766056264
0.07451182058569876,1.9782688421711025,6.934268772865699
0.0751225732134504,1.9760910706617403,6.9443793871203425
0.07573332584120203,1.973947486576157,6.954246496297535
0.07634407846895366,1.9718376680222034,6.96388121833009
0.07695483109670527,1.9697611970122009,6.973293913701125
0.0775655837244569,1.967717658924484,6.982494198754401
0.07817633635220854,1.965706641992934,6.9914909601661845
0.07878708897996017,1.9637277368250623,7.000292370522571
0.07939784160771181,1.9617805359491765,7.008905904947428
0.08000859423546343,1.959864633390946,7.017338358724371
0.08061934686321505,1.957979624279625,7.025595865855317
0.08123009949096668,1.9561251044840522,7.033683918500449
0.08184085211871832,1.9543006702784522,7.04160738724036
0.08245160474646994,1.9525059180379603,7.0493705421046355
0.08306235737422157,1.950740443963717,7.056977074307685
0.08367311000197321,1.9490038438372819,7.064430118635542
0.08428386262972484,1.9472957128040498,7.071732276425351
0.08489461525747646,1.9456156451852762,7.078885639079364
0.08550536788522808,1.9439632343182496,7.085891812057038
0.08611612051297972,1.9423380724241046,7.092751939286622
0.08672687314073135,1.9407397505026918,7.099466727940047
0.08733762576848299,1.9391678582538887,7.106036473513166
0.08794837839623461,1.9376219840246731,7.112461085155348
0.08855913102398623,1.9361017147812507,7.118740111192087
0.08916988365173786,1.9346066361054817,7.124872764783924
0.0897806362794895,1.9331363322148132,7.130857949667332
0.09039138890724112,1.9316903860048966,7.136694285921536
0.09100214153499275,1.930268379114037,7.142380135707321
0.09161289416274439,1.9288698920085945,7.147913628924552
0.09222364679049602,1.9274945040884257,7.153292688733885
0.09283439941824764,1.9261417938114402,7.158515056891902
0.09344515204599926,1.924811338836328,7.163578318846823
0.0940559046737509,1.9235027161824736,7.168479928544753
0.09466665730150253,1.9222155024060954,7.173217232896669
0.09527740992925417,1.920949273791588,7.177787495857092
0.09588816255700579,1.9197036065570734,7.182187922067002
0.09649891518475741,1.9184780770731265,7.186415680014517
0.09710966781250904,1.9172722620936535,7.19046792466815
0.09772042044026068,1.916085738997875,7.194341819538579
0.09833117306801231,1.9149180860423727,7.198034558126762
0.09894192569576393,1.9137688826221528,7.201543384717079
0.09955267832351557,1.9126377095396712,7.204865614476552
0.10016343095126719,1.911524149280773,7.207998652822376
0.10077418357901882,1.9104277862964947,7.210940014022044
0.10138493620677044,1.9093482072896777,7.2136873389914795
0.10199568883452208,1.9082850015053616,7.216238412260457
0.10260644146227371,1.907237761023915,7.2185911780741945
0.10321719409002535,1.90620608105588,7.220743755604013
0.10382794671777695,1.9051895602375177,7.2226944532415
0.10443869934552859,1.9041878009260496,7.2244417819526445
0.10504945197328022,1.9032004094936144,7.225984467671925
0.10566020460103186,1.9022269966189653,7.227321462717203
0.10627095722878349,1.901267177575961,7.228451956210218
0.10688170985653511,1.9003205725179255,7.229375383489422
0.10749246248428675,1.8993868067569597,7.230091434504551
0.10810321511203837,1.8984655110373452,7.230600061185473
0.10871396773979,1.8975563218021751,7.230901483780032
0.10932472036754162,1.8966588814523913,7.230996196158452
0.10993547299529326,1.8957728385974504,7.230884970086058
0.11054622562304489,1.8948978482968502,7.23056885846559
0.11115697825079653,1.8940335722918105,7.230049197557665
0.11176773087854816,1.893179679226415,7.229327608186544
0.11237848350629977,1.892335844857586,7.228405995944327
0.1129892361340514,1.8915017522532804,7.227286550406986
0.11359998876180304,1.8906770919783578,7.225971743380642
0.11421074138955467,1.889861562267604,7.224464326197014
0.11482149401730629,1.8890548691854487,7.222767326081453
0.11543224664505793,1.8882567267719446,7.220884041617658
0.11604299927280955,1.8874668571746498,7.218818037337573
0.11665375190056118,1.8866849907660828,7.216573137465645
0.1172645045283128,1.8859108662464679,7.214153418849512
0.11787525715606444,1.885144230731561,7.2115632031116865
0.11848600978381607,1.884384839825367,7.208807048058014
0.1190967624115677,1.8836324576776309,7.205889738381289
0.11970751503931934,1.8828868570260213,7.2028162756995755
0.12031826766707095,1.882147819222983,7.199591867970216
0.12092902029482258,1.8814151342472882,7.19622191832346
0.12153977292257422,1.8806886007003394,7.192712013358151
0.12215052555032585,1.8799680257873679,7.189067910945767
0.12276127817807747,1.879253225283665,7.185295527588426
0.1233720308058291,1.8785440234860868,7.1814009253773925
0.12398278343358073,1.8778402531500602,7.177390298600165
0.12459353606133236,1.8771417554124017,7.173269960043306
0.125204288689084,1.8764483797002856,7.169046327039106
0.1258150413168356,1.8757599836267274,7.164725907304861
0.12642579394458725,1.8750764328730127,7.1603152846216584
0.12703654657233887,1.8743976010584986,7.155821104401905
0.12764729920009052,1.8737233695982856,7.151250059191337
0.12825805182784214,1.8730536275492542,7.146608874153167
0.12886880445559376,1.8723882714450202,7.14190429258073
0.1294795570833454,1.871727205120356,7.137143061482731
0.13009030971109703,1.8710703395256731,7.132331917285754
0.13070106233884865,1.8704175925321702,7.127477571697093
0.13131181496660027,1.8697688887282695,7.122586697769081
0.13192256759435192,1.8691241592079773,7.117665916205909
0.13253332022210354,1.8684833413518285,7.112721781950351
0.1331440728498552,1.8678463786010666,7.107760771089311
0.13375482547760678,1.8672132202257345,7.102789268111556
0.13436557810535843,1.866583821087344,7.097813553552721
0.13497633073311005,1.865958141396813,7.09283979205912
0.1355870833608617,1.8653361464683265,7.087874020899162
0.13619783598861332,1.8647178064698153,7.082922138951029
0.13680858861636494,1.8641030961707106,7.077989896192631
0.13741934124411656,1.8634919946876423,7.073082883716598
0.13803009387186818,1.8628844852287352,7.068206524292481
0.13864084649961983,1.8622805548371477,7.0633660634957804
0.13925159912737145,1.8616801941344876,7.058566561420843
0.1398623517551231,1.8610833970647136,7.053812884992464
0.14047310438287472,1.8604901606391437,7.0491097008909005
0.14108385701062634,1.8599004846831355,7.04446146909868
0.141694609638378,1.8593143715850196,7.0398724370809225
0.1423053622661296,1.858731826047831,7.035346634603867
0.14291611489388123,1.8581528548443589,7.030887869197495
0.14352686752163288,1.8575774665760343,7.026499722264908
0.1441376201493845,1.8570056714361172,7.022185545838991
0.14474837277713615,1.8564374809776674,7.01794845998605
0.14535912540488774,1.8558729078867113,7.013791350852554
0.14596987803263936,1.8553119657610322,7.0097168693514575
0.146580630660391,1.8547546688949619,7.005727430480904
0.14719138328814263,1.854201032070535,7.001825213267859
0.14780213591589428,1.8536510703553446,6.998012161326406
0.1484128885436459,1.8531047989074045,6.99428998402058
0.14902364117139752,1.8525622327873064,6.990660158217991
0.14963439379914917,1.8520233867779274,6.9871239306214035
0.1502451464269008,1.8514882752119188,6.983682320661909
0.15085589905465244,1.850956911807194,6.980336123938281
0.15146665168240406,1.8504293095105837,6.977085916184057
0.15207740431015568,1.8499054803498276,6.973932057743625
0.15268815693790733,1.849385435294032,6.970874698538725
0.15329890956565892,1.8488691841227025,6.9679137835025236
0.15390966219341054,1.848356735303443,6.965049058462066
0.1545204148211622,1.8478480958783745,6.962280076445092
0.1551311674489138,1.84734327135933,6.9596062043888764
0.15574192007666546,1.8468422656318277,6.957026630227336
0.15635267270441708,1.8463450808678379,6.954540370331894
0.1569634253321687,1.8458517174473064,6.952146277281716
0.15757417795992035,1.8453621738884014,6.949843047937543
0.15818493058767197,1.8448764467864225,6.947629231794187
0.15879568321542362,1.8443945307612863,6.945503239585045
0.15940643584317524,1.8439164184134962,6.9434633521131675
0.16001718847092686,1.8434421002884762,6.941507729281965
0.1606279410986785,1.842971564849149,6.939634419299647
0.1612386937264301,1.8425047984565897,6.937841368030122
0.16184944635418172,1.8420417853586195,6.936126428464846
0.16246019898193337,1.8415825076861403,6.934487370288064
0.163070951609685,1.841126945457031,6.932921889509944
0.16368170423743664,1.840675076587402,6.931427618140838
0.16429245686518826,1.8402268769099892,6.930002133881078
0.16490320949293988,1.839782320199459,6.928642969800396
0.16551396212069153,1.83934137820439,6.927347623981469
0.16612471474844315,1.8389040206856833,6.926113569102922
0.1667354673761948,1.8384702154611374,6.924938261937122
0.16734622000394642,1.8380399284559257,6.923819152738087
0.16795697263169804,1.8376131237587034,6.922753694497104
0.16856772525944969,1.8371897636830532,6.9217393520419845
0.16917847788720128,1.8367698088339883,6.920773610957653
0.16978923051495293,1.8363532181792142,6.919853986307391
0.17039998314270455,1.835939949124842,6.918978031132112
0.17101073577045617,1.8355299575952615,6.918143344708855
0.17162148839820782,1.8351231981168445,6.917347580548229
0.17223224102595944,1.8347196239051826,6.916588454112315
0.17284299365371106,1.8343191869555286,6.915863750234882
0.1734537462814627,1.8339218381361324,6.915171330228462
0.17406449890921433,1.833527527284145,6.914509138660107
0.17467525153696598,1.8331362033037708,6.913875209783318
0.1752860041647176,1.8327478142663494,6.913267673609871
0.17589675679246922,1.8323623075120394,6.91268476161088
0.17650750942022086,1.8319796297527937,6.912124812033702
0.17711826204797246,1.8315997271762985,6.911586274824383
0.1777290146757241,1.8312225455505702,6.911067716146992
0.17833976730347573,1.8308480303288888,6.9105678224897975
0.17895051993122735,1.830476126754766,6.910085404352219
0.179561272558979,1.8301067799666444,6.909619399506476
0.18017202518673062,1.8297399351020247,6.909168875828348
0.18078277781448224,1.8293755374007303,6.9087330336939194
0.18139353044223389,1.829013532307028,6.908311207939753
0.1820042830699855,1.8286538655703184,6.907902869385381
0.18261503569773715,1.8282964833441293,6.907507625917996
0.18322578832548878,1.827941332283149,6.907125223140375
0.1838365409532404,1.8275883596380456,6.90675554458514
0.18444729358099204,1.8272375133478262,6.906398611498347
0.18505804620874364,1.826888742129505,6.906054582197616
0.18566879883649529,1.8265419955648559,6.905723751010863
0.1862795514642469,1.8261972241840345,6.905406546802525
0.18689030409199853,1.8258543795458737,6.905103531096208
0.18750105671975018,1.8255134143146592,6.904815395802623
0.1881118093475018,1.8251742823332135,6.904542960563595
0.18872256197525342,1.8248369386921208,6.904287169723782
0.18933331460300507,1.8245013397949459,6.904049088942842
0.18994406723075669,1.824167443419307,6.903829901460813
0.19055481985850833,1.8238352087736835,6.903630904032371
0.19116557248625995,1.8235045965498486,6.903453502544612
0.19177632511401158,1.8231755689708276,6.903299207333977
0.19238707774176322,1.8228480898343096,6.903169628220815
0.19299783036951482,1.822522124551438,6.903066469277773
0.19360858299726647,1.822197640180935,6.902991523350675
0.19421933562501809,1.8218746054585184,6.902946666351542
0.1948300882527697,1.8215529908215924,6.902933851342022
0.19544084088052135,1.8212327684291973,6.902955102428058
0.19605159350827298,1.8209139121772329,6.903012508485269
0.19666234613602462,1.820596397708965,6.903108216736507
0.19727309876377624,1.8202802024208602,6.90324442620176
0.19788385139152787,1.8199653054637863,6.9034233810415175
0.1984946040192795,1.8196516877396427,6.903647363815527
0.19910535664703113,1.8193393318934947,6.903918688677023
0.19971610927478275,1.8190282223012983,6.904239694524513
0.20032686190253438,1.8187183450533082,6.9046127381321245
0.200937614530286,1.818409687933285,6.905040187278864
0.20154836715803764,1.818102240393615,6.905524413898526
0.20215911978578927,1.8177959935264825,6.906067787269921
0.20276987241354089,1.8174909400312265,6.9066726672679915
0.20338062504129253,1.817187074178034,6.9073413976950215
0.20399137766904415,1.8168843917681383,6.90807629971197
0.2046021302967958,1.816582890090674,6.908879665387878
0.20521288292454742,1.8162825678763752,6.909753751385961
0.20582363555229904,1.8159834252482956,6.910700772803469
0.2064343881800507,1.815685463669732,6.911722897182193
0.2070451408078023,1.815388685889555,6.912822238706454
0.2076558934355539,1.8150930958851335,6.914000852602341
0.20826664606330555,1.8147986988030613,6.915260729753973
0.20887739869105718,1.8145055008978896,6.916603791550105
0.20948815131880882,1.8142135094690706,6.918031884973223
0.21009890394656044,1.8139227327963219,6.91954677794342
0.21070965657431207,1.813633180073626,6.9211501549283225
0.2113204092020637,1.8133448613420695,6.922843612828028
0.21193116182981533,1.8130577874217377,6.924628657144625
0.21254191445756698,1.8127719698428713,6.926506698444086
0.2131526670853186,1.8124874207764954,6.928479049117692
0.21376341971307022,1.812204152964725,6.930546920448215
0.21437417234082187,1.811922179650952,6.932711419986593
