frequency,refractiveIndex,absorption
0.0006107526277516292,2.302201208201435,0.0012961572387115167
0.0012215052555032584,2.3020070920018494,0.005182105493008852
0.0018322578832548875,2.3016839485216862,0.011650286059067599
0.002443010511006517,2.3012323510602077,0.020688139928901055
0.003053763138758146,2.300653098297368,0.032278165664513
0.003664515766509775,2.299947210400822,0.04639799968099417
0.004275268394261404,2.2991159240855614,0.06302051821198922
0.004886021022013034,2.2981606866733904,0.08211396004320579
0.005496773649764663,2.2970831492083708,0.10364206892602532
0.006107526277516292,2.2958851586923466,0.12756425442636857
0.006718278905267922,2.294568749511738,0.153835769825718
0.00732903153301955,2.293136134132671,0.1824079055730961
0.00793978416077118,2.2915896931463373,0.21322819669043333
0.008550536788522809,2.2899319647501297,0.24624064245926117
0.009161289416274438,2.288165633752418,0.2813859366647539
0.009772042044026067,2.286293520190273,0.31860170664328424
0.010382794671777697,2.284318567649327,0.35782275937157587
0.010993547299529326,2.2822438313742692,0.3989813328476726
0.011604299927280955,2.280072466256255,0.44200735104599426
0.012215052555032585,2.2778077147808102,0.4868286807776822
0.012825805182784214,2.275452895016018,0.533371388852929
0.013436557810535843,2.273011388716337,0.581559998020923
0.014047310438287471,2.270486629612476,0.6313177402541734
0.0146580630660391,2.2678820919521887,0.6825668060443805
0.015268815693790731,2.2652012793509777,0.7352285884853106
0.01587956832154236,2.262447714005616,0.7892239210317147
0.01649032094929399,2.259624926317118,0.8444733079404917
0.017101073577045618,2.2567364449634773,0.9008971465190423
0.01771182620479725,2.253785787456171,0.9584159404241728
0.018322578832548876,2.250776451208355,1.0169505033720214
0.018933331460300507,2.2477119051366254,1.076422152733105
0.019544084088052135,2.2445955818126655,1.1367528925963675
0.020154836715803762,2.2414308701754866,1.197865585990114
0.020765589343555393,2.2382211088101718,1.259684116046376
0.02137634197130702,2.234969579794185,1.3221335359864568
0.021987094599058652,2.2316795031080905,1.385140207890137
0.02259784722681028,2.228354031603738,1.4486319302879733
0.02320859985456191,2.224996246519363,1.5125380546856027
0.023819352482313542,2.2216091535282265,1.5767895911909777
0.02443010511006517,2.2181956793045985,1.6413193034698852
0.025040857737816797,2.214758668588768,1.706061793302356
0.025651610365568428,2.2113008817308515,1.7709535750527794
0.026262362993320056,2.2078249926917084,1.8359331404002186
0.026873115621071687,2.20433358747798,1.9009410137026523
0.027483868248823314,2.200829162987579,1.9659197983906425
0.028094620876574942,2.197314126241124,2.0308142148017456
0.028705373504326573,2.1937907939747294,2.0955711298788793
0.0293161261320782,2.1902613925692376,2.1601395791621085
0.029926878759829835,2.1867280582911683,2.224470781506681
0.030537631387581463,2.183192837820966,2.2885181469594844
0.03114838401533309,2.1796576890444372,2.3522372782224954
0.03175913664308472,2.176124482083938,2.4155859661254735
0.03236988927083635,2.172595000546479,2.4785241795219006
0.03298064189858798,2.169070942966682,2.5410140500113667
0.03359139452633961,2.16555392442338,2.6030198518803966
0.034202147154091235,2.1620454783095417,2.664507977640043
0.03481289978184286,2.158547058236109,2.7254469095246847
0.0354236524095945,2.155060040051346,2.7858071873017907
0.036034405037346125,2.1515857239582736,2.8455613727272797
0.03664515766509775,2.1481253367137523,2.904684010965493
0.03725591029284938,2.1446800338937746,2.9631515892771674
0.037866662920601014,2.1412509022105604,3.0209424932636937
0.038477415548352635,2.137838961867959,3.078036960940199
0.03908816817610427,2.134445168942693,3.134417034894919
0.039698920803855904,2.131070417779873,3.190066512778518
0.040309673431607525,2.1277155433921235,3.2449708963510826
0.04092042605935916,2.1243813238526066,3.299117339303215
0.04153117868711079,2.121068482672947,3.3524945940517465
0.04214193131486242,2.1177776911580684,3.4050929577005067
0.04275268394261404,2.114509570730514,3.4569042173425673
0.04336343657036568,2.1112646952177854,3.507921594870326
0.043974189198117304,2.108043593096782,3.558139691448046
0.04458494182586893,2.1048467496901764,3.607554431791805
0.04519569445362056,2.1016746093102094,3.6561630083916237
0.045806447081372194,2.0985275773459384,3.7039638258019982
0.04641719970912382,2.0954060222905864,3.750956445117711
0.04702795233687545,2.0923102777061744,3.7971415287442283
0.047638704964627084,2.089240644123092,3.8425207855647354
0.048249457592378704,2.0861973908727407,3.8870969165971867
0.04886021022013034,2.083180757851887,3.9308735612305683
0.049470962847881966,2.0801909572176114,3.9738552441199886
0.050081715475633594,2.077228175012333,4.0160473228178395
0.05069246810338522,2.0742925727185355,4.057455936209376
0.051303220731136856,2.071384288743281,4.098087953818253
0.05191397335888848,2.068503439832818,4.137950926041014
0.05252472598664011,2.0656501224179147,4.177053035366008
0.053135478614391746,2.062824413890711,4.21540304862574
0.05374623124214337,2.060026373814228,4.2530102703307495
0.054356983869895,2.0572560450657345,4.2898844971249
0.05496773649764663,2.054513454915463,4.326035973401786
0.05557848912539826,2.0517986160422605,4.361475348115818
0.056189241753149884,2.049111527487909,4.396213632818988
0.05679999438090152,2.046452175551981,4.430262160950662
0.057410747008653146,2.043820534629214,4.463632548404782
0.05802149963640477,2.0412165679914054,4.496336655394734
0.0586322522641564,2.0386402285159817,4.52838654963392
0.059243004891908035,2.0360914593634187,4.559794470847384
0.05985375751965967,2.0335701946056934,4.59057279662508
0.06046451014741129,2.0310763598080337,4.620734009627039
0.061075262775162925,2.0286098725662294,4.650290666146045
0.06168601540291455,2.026170643001747,4.679255366031873
0.06229676803066618,2.0237585742169286,4.707640723977984
0.0629075206584178,2.0213735627124954,4.7354593421690385
0.06351827328616944,2.019015498769601,4.762723784286443
0.06412902591392107,2.0166842667986007,4.789446550864389
0.0647397785416727,2.0143797456567047,4.815640055989455
0.06535053116942433,2.0121018089366025,4.841316605332345
0.06596128379717596,2.0098503252281263,4.86648837549953
0.0665720364249276,2.0076251583549474,4.891167394690497
0.06718278905267921,2.005426167588235,4.915365524643852
0.06779354168043085,2.003253207839163,4.939094443854186
0.06840429430818247,2.0011061298320656,4.962365632040082
0.06901504693593409,1.9989847802599678,4.985190355841328
0.06962579956368573,1.9968890019241767,5.007579655722533
0.07023655219143736,1.9948186338595049,5.029544334058846
0.070847304819189,1.9927735114466523,5.051094944378073
0.07145805744694061,1.990753466513174,5.072241781731487
0.07206881007469225,1.988758327424427,5.092994874166588
0.07267956270244387,1.986787919165747,5.113363975271438
0.0732903153301955,1.9848420634171076,5.1333585577612935
0.07390106795794714,1.9829205786213797,5.152987808076534
0.07451182058569876,1.9810232800472583,5.172260621959834
0.0751225732134504,1.9791499798478833,5.191185600981399
0.07573332584120203,1.977300487116025,5.2097710499777685
0.07634407846895366,1.9754746079367511,5.228024975372783
0.07695483109670527,1.9736721454383357,5.2459550843457485
0.0775655837244569,1.971892899842129,5.263568784813232
0.07817633635220854,1.9701366685120816,5.280873186190219
0.07878708897996017,1.9684032460045033,5.297875100896442
0.07939784160771181,1.9666924241186243,5.314581046573344
0.08000859423546343,1.9650039919484286,5.330997248977238
0.08061934686321505,1.9633377359362105,5.347129645513475
0.08123009949096668,1.9616934399282608,5.362983889379234
0.08184085211871832,1.960070885232989,5.378565354278434
0.08245160474646994,1.9584698506818008,5.393879139676375
0.08306235737422157,1.956890112692985,5.408930076560344
0.08367311000197321,1.9553314453388007,5.423722733671496
0.08428386262972484,1.9537936204159743,5.4382614241771465
0.08489461525747646,1.9522764075196897,5.452550212748423
0.08550536788522808,1.9507795741212406,5.466592923013243
0.08611612051297972,1.9493028856493557,5.480393145351135
0.08672687314073135,1.9478461055752767,5.493954244999862
0.08733762576848299,1.946408995501582,5.507279370442084
0.08794837839623461,1.9449913152547618,5.520371462042735
0.08855913102398623,1.9435928229814754,5.533233260906716
0.08916988365173786,1.9422132752484704,5.545867317927974
0.0897806362794895,1.940852427146048,5.55827600300177
0.09039138890724112,1.9395100323949943,5.57046151437194
0.09100214153499275,1.9381858434568489,5.582425888085732
0.09161289416274439,1.9368796116473812,5.594171007530221
0.09222364679049602,1.935591087253116,5.60569861302356
0.09283439941824764,1.9343200196507517,5.617010311436203
0.09344515204599926,1.9330661574292858,5.6281075858177525
0.0940559046737509,1.931829248514664,5.638991805004702
0.09466665730150253,1.9306090402967386,5.6496642331866465
0.09527740992925417,1.929405279758363,5.660126039408685
0.09588816255700579,1.9282177136063368,5.670378306986743
0.09649891518475741,1.9270460884040561,5.680422042817038
0.09710966781250904,1.92589015070556,5.690258186557659
0.09772042044026068,1.9247496471907921,5.699887619663725
0.09833117306801231,1.9236243248017921,5.7093111742573335
0.09894192569576393,1.9225139308795935,5.718529641814515
0.09955267832351557,1.9214182133015527,5.727543781651118
0.10016343095126719,1.9203369206188836,5.736354329193689
0.10077418357901882,1.9192698021941033,5.744962004017671
0.10138493620677044,1.9182166083381624,5.753367517639389
0.10199568883452208,1.9171770904469805,5.761571581048672
0.10260644146227371,1.9161510011371357,5.769574911968464
0.10321719409002535,1.915138094380447,5.777378241829927
0.10382794671777695,1.91413812563719,5.784982322452319
0.10443869934552859,1.9131508519877085,5.79238793241784
0.10504945197328022,1.9121760322621275,5.799595883130514
0.10566020460103186,1.9112134271679864,5.806607024554537
0.10627095722878349,1.9102627994154775,5.813422250621032
0.10688170985653511,1.9093239138401066,5.820042504299527
0.10749246248428675,1.90839653752251,5.8264687823279075
0.10810321511203837,1.907480439905219,5.832702139597073
0.10871396773979,1.9065753929061473,5.838743693185836
0.10932472036754162,1.905681171028585,5.844594626045441
0.10993547299529326,1.904797551467507,5.850256190330826
0.11054622562304489,1.9039243142119917,5.855729710378732
0.11115697825079653,1.9030612421435738,5.861016585333576
0.11176773087854816,1.9022081211303514,5.8661182914218335
0.11237848350629977,1.9013647401166893,5.8710363838782165
0.1129892361340514,1.9005308912083578,5.875772498525802
0.11359998876180304,1.8997063697529781,5.880328353016043
0.11421074138955467,1.8988909744156335,5.884705747731551
0.11482149401730629,1.8980845072495467,5.888906566360371
0.11543224664505793,1.8972867737616987,5.892932776145911
0.11604299927280955,1.8964975829733262,5.896786427822184
0.11665375190056118,1.8957167474751881,5.900469655241122
0.1172645045283128,1.8949440834775841,5.903984674703525
0.11787525715606444,1.8941794108550178,5.907333783999538
0.11848600978381607,1.8934225531855375,5.910519361174139
0.1190967624115677,1.8926733377846723,5.913543863024298
0.11970751503931934,1.8919315957340002,5.916409823342695
0.12031826766707095,1.891197161904334,5.919119850918262
0.12092902029482258,1.8904698749735593,5.921676627307312
0.12153977292257422,1.8897495774391495,5.924082904388631
0.12215052555032585,1.8890361156254172,5.926341501714768
0.12276127817807747,1.8883293396855592,5.928455303675353
0.1233720308058291,1.887629103598572,5.930427256484827
0.12398278343358073,1.886935265161128,5.932260365010195
0.12459353606133236,1.8862476859745132,5.933957689453168
0.125204288689084,1.8855662314267383,5.935522341900573
0.1258150413168356,1.8848907706699498,5.936957482759587
0.12642579394458725,1.8842211765932704,5.938266317090415
0.12703654657233887,1.8835573257912257,5.939452090853076
0.12764729920009052,1.8828990985279026,5.940518087082156
0.12825805182784214,1.882246378697001,5.941467622003356
0.12886880445559376,1.8815990537779665,5.942304041107942
0.1294795570833454,1.8809570147883674,5.943030715197453
0.13009030971109703,1.8803201562327114,5.943651036413754
0.13070106233884865,1.8796883760478973,5.944168414267223
0.13131181496660027,1.8790615755454934,5.944586271676021
0.13192256759435192,1.8784396593510504,5.944908041030321
0.13253332022210354,1.877822535340653,5.945137160292154
0.1331440728498552,1.8772101145749276,5.945277069144279
0.13375482547760678,1.8766023112307042,5.945331205197575
0.13436557810535843,1.8759990425305646,5.945303000269675
0.13497633073311005,1.8754002286704772,5.945195876743409
0.1355870833608617,1.874805792745736,5.945013244014927
0.13619783598861332,1.8742156606754266,5.944758495041299
0.13680858861636494,1.87362976112562,5.9444350029950614
0.13741934124411656,1.8730480254315118,5.944046118032976
0.13803009387186818,1.8724703875187152,5.943595164188052
0.13864084649961983,1.8718967838239047,5.943085436388283
0.13925159912737145,1.8713271532150224,5.94252019761001
0.1398623517551231,1.8707614369112284,5.941902676170024
0.14047310438287472,1.8701995784028036,5.9412360631608685
0.14108385701062634,1.8696415233711714,5.940523510032855
0.141694609638378,1.8690872196092296,5.939768126325843
0.1423053622661296,1.868536616942164,5.938972977553739
0.14291611489388123,1.8679896671489,5.93814108324167
0.14352686752163288,1.8674463238843604,5.937275415119333
0.1441376201493845,1.866906542602679,5.936378895468786
0.14474837277713615,1.8663702804815039,5.935454395627941
0.14535912540488774,1.8658374963475335,5.934504734647759
0.14596987803263936,1.865308150603409,5.933532678103463
0.146580630660391,1.8647822051560836,5.932540937056422
0.14719138328814263,1.864259623346768,5.931532167165108
0.14780213591589428,1.8637403698825636,5.930508967941784
0.1484128885436459,1.8632244107698717,5.929473882152595
0.14902364117139752,1.8627117132496553,5.928429395356189
0.14963439379914917,1.8622022457346386,5.927377935577022
0.1502451464269008,1.8616959777484956,5.926321873109689
0.15085589905465244,1.8611928798671,5.925263520447614
0.15146665168240406,1.8606929236618694,5.9242051323330776
0.15207740431015568,1.8601960816452536,5.92314890592108
0.15268815693790733,1.859702327218395,5.922096981052674
0.15329890956565892,1.8592116346209824,5.9210514406312305
0.15390966219341054,1.8587239788833148,5.920014311095087
0.1545204148211622,1.8582393357805853,5.918987562981351
0.1551311674489138,1.857757681789379,5.917973111572817
0.15574192007666546,1.8572789940463847,5.916972817623175
0.15635267270441708,1.8568032503093008,5.915988488151746
0.1569634253321687,1.8563304289199212,5.915021877303533
0.15757417795992035,1.8558605087693596,5.914074687264663
0.15818493058767197,1.8553934692654026,5.913148569230137
0.15879568321542362,1.8549292903019305,5.912245124413532
0.15940643584317524,1.8544679522303718,5.91136590509479
0.16001718847092686,1.8540094358331427,5.9105124156979185
0.1606279410986785,1.8535537222990166,5.909686113892429
0.1612386937264301,1.8531007932003591,5.908888411712656
0.16184944635418172,1.8526506304721753,5.908120676687726
0.16246019898193337,1.8522032163928999,5.907384232977256
0.163070951609685,1.8517585335668552,5.906680362506137
0.16368170423743664,1.8513165649083116,5.906010306092652
0.16429245686518826,1.8508772936270752,5.905375264565407
0.16490320949293988,1.8504407032155177,5.9047763998622385
0.16551396212069153,1.8500067774369742,5.904214836108363
0.16612471474844315,1.8495755003154355,5.9036916606666034
0.1667354673761948,1.8491468561264337,5.903207925157593
0.16734622000394642,1.8487208293890527,5.902764646443704
0.16795697263169804,1.848297404858981,5.902362807575053
0.16856772525944969,1.8478765675225082,5.902003358692497
0.16917847788720128,1.847458302591393,5.901687217884511
0.16978923051495293,1.8470425954985177,5.90141527199679
0.17039998314270455,1.8466294318942362,5.9011883773892135
0.17101073577045617,1.84621879764335,5.9010073606414455
0.17162148839820782,1.8458106788226065,5.900873019202008
0.17223224102595944,1.8454050617186653,5.900786121981899
0.17284299365371106,1.8450019328264344,5.900747409890014
0.1734537462814627,1.8446012788477097,5.900757596310801
0.17406449890921433,1.844203086690039,5.900817367522323
0.17467525153696598,1.8438073434657425,5.90092738305625
0.1752860041647176,1.8434140364910134,5.901088275998453
0.17589675679246922,1.843023153285041,5.901300653232077
0.17650750942022086,1.8426346815690802,5.901565095623022
0.17711826204797246,1.8422486092654229,5.901882158149688
0.1777290146757241,1.841864924496196,5.902252369977795
0.17833976730347573,1.8414836155819467,5.902676234483716
0.17895051993122735,1.841104671039956,5.903154229225397
0.179561272558979,1.8407280795822365,5.9036868058670535
0.18017202518673062,1.8403538301131719,5.9042743900572585
0.18078277781448224,1.839981911726761,5.90491738126487
0.18139353044223389,1.8396123137034208,5.905616152575078
0.1820042830699855,1.8392450255063382,5.90637105045018
0.18261503569773715,1.838880036777322,5.907182394457237
0.18322578832548878,1.8385173373321417,5.908050476967191
0.1838365409532404,1.8381569171553418,5.908975562829138
0.18444729358099204,1.8377987663945006,5.909957889023978
0.18505804620874364,1.837442875353938,5.910997664301641
0.18566879883649529,1.8370892344878604,5.912095068805709
0.1862795514642469,1.8367378343929377,5.913250253690968
0.18689030409199853,1.836388665800321,5.914463340737067
0.18750105671975018,1.8360417195671002,5.915734421963972
0.1881118093475018,1.8356969866672206,5.9170635592529806
0.18872256197525342,1.8353544581818564,5.918450783978521
0.18933331460300507,1.8350141252892793,5.919896096654593
0.18994406723075669,1.8346759792542229,5.921399466601348
0.19055481985850833,1.8343400114167834,5.92296083163554
0.19116557248625995,1.834006213180873,5.924580097789579
0.19177632511401158,1.833674576002262,5.926257139063447
0.19238707774176322,1.8333450913762424,5.9279917972139025
0.19299783036951482,1.833017750824951,5.929783881585103
0.19360858299726647,1.832692545884386,5.931633168983733
0.19421933562501809,1.832369468091166,5.933539403604346
0.1948300882527697,1.8320485089690681,5.93550229700605
0.19544084088052135,1.8317296600153934,5.93752152814579
0.19605159350827298,1.8314129126872103,5.9395967434710775
0.19666234613602462,1.8310982583875197,5.941727557074086
0.19727309876377624,1.8307856884513967,5.943913550911602
0.19788385139152787,1.8304751941321513,5.946154275090725
0.1984946040192795,1.8301667665875763,5.94844924822563
0.19910535664703113,1.8298603968663172,5.950797957864377
0.19971610927478275,1.8295560758944298,5.953199860989175
0.20032686190253438,1.8292537944621736,5.9556543845905425
0.200937614530286,1.8289535432110937,5.958160926316813
0.20154836715803764,1.8286553126214455,5.960718855198691
0.20215911978578927,1.8283590930000158,5.96332751245101
0.20276987241354089,1.8280648744683876,5.965986212349495
0.20338062504129253,1.8277726469516997,5.968694243183685
0.20399137766904415,1.827482400167958,5.971450868285002
0.2046021302967958,1.8271941236179319,5.974255327128716
0.20521288292454742,1.8269078065756956,5.977106836508665
0.20582363555229904,1.8266234380798485,5.9800045917834534
0.2064343881800507,1.8263410069254662,5.982947768191225
0.2070451408078023,1.826060501656809,5.98593552223163
0.2076558934355539,1.825781910560841,5.988966993112441
0.20826664606330555,1.825505221661581,5.9920413042566985
0.20887739869105718,1.8252304227153284,5.995157564869332
0.20948815131880882,1.8249575012067845,5.998314871557191
0.21009890394656044,1.8246864443461026,6.001512310001292
0.21070965657431207,1.8244172390668876,6.004748956675734
0.2113204092020637,1.8241498720251659,6.0080238806091515
0.21193116182981533,1.8238843295993414,6.011336145185432
0.21254191445756698,1.8236205978911557,6.014684809977031
0.2131526670853186,1.8233586627276588,6.018068932608508
0.21376341971307022,1.823098509664199,6.021487570642619
