frequency,refractiveIndex,absorption
0.0006107526277516292,2.2406046682110277,0.001473208871557864
0.0012215052555032584,2.240337273130403,0.005888370411279741
0.0018322578832548875,2.2398924699739355,0.013232121496847814
0.002443010511006517,2.239271534858159,0.023482296809193788
0.003053763138758146,2.238476240750467,0.036608087071603006
0.003664515766509775,2.2375088441154936,0.05257025744821549
0.004275268394261404,2.2363720680851613,0.07132142305725135
0.004886021022013034,2.2350690823951007,0.09280637781142936
0.005496773649764663,2.2336034803715834,0.1169624721437638
0.006107526277516292,2.2319792532879266,0.14372003462440439
0.006718278905267922,2.230200762436918,0.17300283203244726
0.00732903153301955,2.2282727092856405,0.20472856212160773
0.00793978416077118,2.2262001040912205,0.2388093731120334
0.008550536788522809,2.22398823336045,0.2751524038508793
0.009161289416274438,2.2216426265336,0.31366033860659515
0.009772042044026067,2.2191690222630385,0.35423197058826483
0.010382794671777697,2.2165733346418848,0.3967627685019767
0.010993547299529326,2.2138616197170635,0.4411454407590531
0.011604299927280955,2.2110400425960193,0.48727049232258235
0.012215052555032585,2.2081148454278736,0.5350267696058945
0.012825805182784214,2.2050923165086815,0.5843019893045484
0.013436557810535843,2.201978760728001,0.6349832475394983
0.014047310438287471,2.1987804715405326,0.6869575061992961
0.0146580630660391,2.1955037046133863,0.7401120538826277
0.015268815693790731,2.1921546532669343,0.794334939347818
0.01587956832154236,2.1887394257960064,0.8495153758648192
0.01649032094929399,2.185264024728649,0.9055441153289449
0.017101073577045618,2.181734328052432,0.9623137914297135
0.01771182620479725,2.1781560724133593,1.0197192315663683
0.018322578832548876,2.174534838270151,1.0776577375622354
0.018933331460300507,2.170876036967126,1.1360293355505726
0.019544084088052135,2.167184899671967,1.1947369956841423
0.020154836715803762,2.16346646811046,1.2536868225602604
0.020765589343555393,2.159725587018637,1.3127882174532324
0.02137634197130702,2.1559668982235025,1.371954013608886
0.021987094599058652,2.1521948362564887,1.4311005859833248
0.02259784722681028,2.148413625398899,1.490147936903564
0.02320859985456191,2.1446272780554287,1.5490197591929473
0.023819352482313542,2.140839594350452,1.6076434783436464
0.02443010511006517,2.1370541628416566,1.6659502753340207
0.025040857737816797,2.133274362246885,1.723875091684042
0.025651610365568428,2.1295033640821535,1.7813566183194234
0.026262362993320056,2.125744136112026,1.8383372697785312
0.026873115621071687,2.1219994465171266,1.8947631452466955
0.027483868248823314,2.1182718686879722,1.9505839778437957
0.028094620876574942,2.114563786558944,2.0057530735243394
0.028705373504326573,2.110877400401169,2.0602272408776012
0.0293161261320782,2.1072147329982274,2.1139667130385638
0.029926878759829835,2.1035776361338376,2.1669350628429345
0.030537631387581463,2.099967797325822,2.2190991122785957
0.03114838401533309,2.0963867467459263,2.2704288372079464
0.03175913664308472,2.092835864270011,2.320897268255343
0.03236988927083635,2.08931638660815,2.370480388678141
0.03298064189858798,2.0858294144688156,2.4191570299645675
0.03359139452633961,2.0823759197159255,2.466908765830825
0.034202147154091235,2.078956752481746,2.5137198052203624
0.03481289978184286,2.0755726482028236,2.5595768848445406
0.0354236524095945,2.072224234549829,2.6044691617423137
0.036034405037346125,2.0689120382258843,2.6483881062794317
0.03664515766509775,2.065636491611221,2.691327395954825
0.03725591029284938,2.0623979392351504,2.7332828103321813
0.037866662920601014,2.059196644059198,2.7742521273699507
0.038477415548352635,2.0560327935579217,2.8142350213813816
0.03908816817610427,2.0529065055862934,2.853232962818134
0.039698920803855904,2.0498178340248896,2.8912491200382253
0.040309673431607525,2.046766774196002,2.928288263186664
0.04092042605935916,2.0437532680457604,2.964356670291725
0.04153117868711079,2.0407772090889633,2.999462035654151
0.04214193131486242,2.0378384471148245,3.03361338058631
0.04275268394261404,2.034936792653234,3.066820966539356
0.04336343657036568,2.032072021202297,3.099096210640487
0.043974189198117304,2.0292438772190327,3.1304516036488637
0.04458494182586893,2.026452077876045,3.160900630327435
0.04519569445362056,2.0236963165878423,3.1904576922177594
0.045806447081372194,2.0209762663111994,3.2191380327978827
0.04641719970912382,2.0182915826246144,3.2469576649966316
0.04702795233687545,2.0156419065924522,3.2739333010328346
0.047638704964627084,2.013026867419847,3.3000822845453452
0.048249457592378704,2.0104460849048245,3.3254225249756524
0.04886021022013034,2.007899171694442,3.3499724341654162
0.049470962847881966,2.00538573535199,3.373750865128322
0.050081715475633594,2.002905380242548,3.396777052958158
0.05069246810338522,2.0004577092442917,3.419070557833048
0.051303220731136856,1.9980423252931048,3.4406512100785673
0.05191397335888848,1.9956588327680935,3.461539057253298
0.05252472598664011,1.9933068387256427,3.4817543132214435
0.053135478614391746,1.990985953989633,3.501317309179681
0.05374623124214337,1.9886957941054386,3.520248446607331
0.054356983869895,1.986435980165196,3.5385681521092596
0.05496773649764663,1.9842061395118364,3.556296834125989
0.05557848912539826,1.9820059063291773,3.573454841483752
0.056189241753149884,1.9798349221253033,3.5900624237618763
0.05679999438090152,1.9776928361162647,3.606139693454456
0.057410747008653146,1.9755793055170252,3.621706589906504
0.05802149963640477,1.9734939957463398,3.636782845004424
0.0586322522641564,1.9714365805521123,3.6513879506026994
0.059243004891908035,1.9694067420635704,3.665541127669681
0.05985375751965967,1.9674041707763656,3.679261297135159
0.06046451014741129,1.9654285654765389,3.692567052424015
0.061075262775162925,1.963479633109024,3.7054766336592495
0.06168601540291455,1.961557088596182,3.7180079035189415
0.06229676803066618,1.9596606546116078,3.730178324730998
0.0629075206584178,1.957790061314228,3.7420049391884995
0.06351827328616944,1.9559450460474954,3.7535043486700044
0.06412902591392107,1.9541253530082299,3.7646926971459376
0.0647397785416727,1.9523307328894457,3.7755856546533226
0.06535053116942433,1.9505609425012926,3.7861984027197746
0.06596128379717596,1.9488157443739602,3.7965456213158424
0.0665720364249276,1.9470949063462455,3.8066414773144372
0.06718278905267921,1.9453982011432034,3.8164996144351213
0.06779354168043085,1.9437254059461218,3.8261331446486584
0.06840429430818247,1.9420763019578393,3.835554641017055
0.06901504693593409,1.9404506739662217,3.8447761319426252
0.06962579956368573,1.938848309908401,3.853809096797284
0.07023655219143736,1.9372690004382216,3.8626644629039655
0.070847304819189,1.9357125384991034,3.871352603838756
0.07145805744694061,1.934178718904379,3.879883339021513
0.07206881007469225,1.9326673379269863,3.888265934562484
0.07267956270244387,1.931178192900209,3.896509105329467
0.0732903153301955,1.92971108183101,3.9046210181999883
0.07390106795794714,1.9282658030273574,3.912609296461705
0.07451182058569876,1.9268421547407488,3.920481025322386
0.0751225732134504,1.9254399348250606,3.9282427584905775
0.07573332584120203,1.9240589404126476,3.9359005257864146
0.07634407846895366,1.9226989676085493,3.9434598417418107
0.07695483109670527,1.9213598112034922,3.950925715147929
0.0775655837244569,1.9200412644062703,3.9583026595064563
0.07817633635220854,1.9187431185960022,3.965594704342067
0.07878708897996017,1.9174651630946191,3.972805407331365
0.07939784160771181,1.9162071849598912,3.979937867203967
0.08000859423546343,1.914968968799135,3.986994737369916
0.08061934686321505,1.9137502966037407,3.9939782402280946
0.08123009949096668,1.9125509476045273,4.000890182110137
0.08184085211871832,1.9113706981478602,4.007731968812544
0.08245160474646994,1.9102093215924174,4.01450462167144
0.08306235737422157,1.9090665882264062,4.021208794132599
0.08367311000197321,1.907942265204996,4.027844788771173
0.08428386262972484,1.9068361165076229,4.0344125747123725
0.08489461525747646,1.905747902914855,4.040911805409043
0.08550536788522808,1.904677382004365,4.047341836727226
0.08611612051297972,1.9036243081655928,4.053701745294759
0.08672687314073135,1.9025884326325857,4.059990347066455
0.08733762576848299,1.9015695035344804,4.066206216058861
0.08794837839623461,1.9005672659630908,4.072347703211284
0.08855913102398623,1.8995814620569638,4.078412955325683
0.08916988365173786,1.8986118311013163,4.084399934041929
0.0897806362794895,1.8976581096431717,4.090306434804284
0.09039138890724112,1.8967200316210342,4.0961301057746935
0.09100214153499275,1.8957973285084107,4.101868466651144
0.09161289416274439,1.8948897294704383,4.10751892734727
0.09222364679049602,1.893996961532915,4.113078806493321
0.09283439941824764,1.8931187497629602,4.118545349716263
0.09344515204599926,1.8922548174605565,4.123915747660277
0.0940559046737509,1.891404886360187,4.129187153707909
0.09466665730150253,1.8905686768418006,4.134356701364721
0.09527740992925417,1.889745908150291,4.139421521269813
0.09588816255700579,1.8889362986227138,4.144378757796976
0.09649891518475741,1.8881395659224176,4.1492255852118145
0.09710966781250904,1.887355427279298,4.153959223351591
0.09772042044026068,1.886583599735347,4.158576952795387
0.09833117306801231,1.8858238003947136,4.163076129495355
0.09894192569576393,1.8850757466774355,4.167454198837808
0.09955267832351557,1.8843391565760679,4.171708709109021
0.10016343095126719,1.883613748914384,4.1758373243377545
0.10077418357901882,1.8828992436073635,4.179837836491823
0.10138493620677044,1.882195361921678,4.183708177004608
0.10199568883452208,1.8815018267358965,4.187446427612544
0.10260644146227371,1.8808183627996342,4.1910508304828
0.10321719409002535,1.880144696990901,4.194519797615546
0.10382794671777695,1.879480558570896,4.197851919505135
0.10443869934552859,1.8788256794355267,4.201045973047385
0.10504945197328022,1.8781797943629428,4.204100928681778
0.10566020460103186,1.8775426412563867,4.207015956759818
0.10627095722878349,1.8769139613817025,4.209790433132936
0.10688170985653511,1.8762934995988385,4.212423943954829
0.10749246248428675,1.8756810045867294,4.214916289696546
0.10810321511203837,1.8750762290609513,4.217267488373381
0.10871396773979,1.8744789299835818,4.219477777985938
0.10932472036754162,1.873888868764705,4.221547618179454
0.10993547299529326,1.8733058114550605,4.223477691127609
0.11054622562304489,1.872729528929343,4.225268901649651
0.11115697825079653,1.8721597970596886,4.2269223765707995
0.11176773087854816,1.8715963968789482,4.2284394633400675
0.11237848350629977,1.8710391147333385,4.2298217279191155
0.1129892361340514,1.8704877424241328,4.23107095195951
0.11359998876180304,1.8699420773380668,4.232189129287677
0.11421074138955467,1.8694019225661873,4.233178461717975
0.11482149401730629,1.868867087010899,4.234041354216858
0.11543224664505793,1.868337385481006,4.234780409442438
0.11604299927280955,1.867812638774578,4.235398421685534
0.11665375190056118,1.8672926737495275,4.2358983702406565
0.1172645045283128,1.8667773233817935,4.236283412234893
0.11787525715606444,1.8662664268110931,4.236556874946506
0.11848600978381607,1.8657598293742366,4.2367222476451625
0.1190967624115677,1.8652573826260086,4.236783172985417
0.11970751503931934,1.8647589443477177,4.236743437989918
0.12031826766707095,1.8642643785434814,4.236606964654908
0.12092902029482258,1.8637735554244113,4.236377800215958
0.12153977292257422,1.863286351380862,4.236060107108901
0.12215052555032585,1.8628026489429557,4.235658152663781
0.12276127817807747,1.8623223367296229,4.235176298568894
0.1233720308058291,1.8618453093864444,4.23461899014265
0.12398278343358073,1.8613714675125845,4.233990745450911
0.12459353606133236,1.8609007175771701,4.233296144307885
0.125204288689084,1.860432971825459,4.232539817197128
0.1258150413168356,1.8599681481752075,4.231726434151714
0.12642579394458725,1.8595061701036348,4.230860693628541
0.12703654657233887,1.8590469665254281,4.229947311414573
0.12764729920009052,1.8585904716622468,4.228991009599874
0.12825805182784214,1.858136624904198,4.227996505652442
0.12886880445559376,1.8576853706637757,4.226968501629507
0.1294795570833454,1.8572366582227784,4.225911673557343
0.13009030971109703,1.8567904415727168,4.224830661012617
0.13070106233884865,1.8563466792492433,4.223730056934518
0.13131181496660027,1.8559053341611538,4.222614397699226
0.13192256759435192,1.8554663734144885,4.221488153482913
0.13253332022210354,1.8550297681323031,4.220355718940723
0.1331440728498552,1.8545954932706505,4.219221404227564
0.13375482547760678,1.8541635274313315,4.21808942638306
0.13436557810535843,1.8537338526719667,4.216963901103948
0.13497633073311005,1.8533064543139404,4.2158488349230305
0.1355870833608617,1.8528813207487642,4.214748117815011
0.13619783598861332,1.85245844324339,4.213665516244201
0.13680858861636494,1.8520378157450126,4.212604666671375
0.13741934124411656,1.851619434685881,4.211569069531661
0.13803009387186818,1.8512032987886173,4.210562083695765
0.13864084649961983,1.8507894088725614,4.20958692142532
0.13925159912737145,1.8503777676615978,4.208646643828416
0.1398623517551231,1.8499683795939583,4.207744156824404
0.14047310438287472,1.8495612506344334,4.20688220762075
0.14108385701062634,1.8491563880894357,4.206063381705675
0.141694609638378,1.8487538004253337,4.205290100357942
0.1423053622661296,1.8483534970904458,4.204564618673413
0.14291611489388123,1.8479554883410785,4.203889024106357
0.14352686752163288,1.8475597850719672,4.203265235522362
0.1441376201493845,1.847166398651452,4.202695002757364
0.14474837277713615,1.8467753407617067,4.202179906676847
0.14535912540488774,1.8463866232443138,4.2017213597267205
0.14596987803263936,1.8460002579514607,4.201320606967615
0.146580630660391,1.8456162566030057,4.200978727581054
0.14719138328814263,1.8452346306496363,4.20069663683617
0.14780213591589428,1.8448553911423373,4.2004750885041435
0.1484128885436459,1.8444785486083395,4.2003146777061415
0.14902364117139752,1.8441041129337192,4.200215844179666
0.14963439379914917,1.8437320932527874,4.200178875947018
0.1502451464269008,1.8433624978443794,4.200203913369432
0.15085589905465244,1.8429953340351533,4.200290953568416
0.15146665168240406,1.8426306081099602,4.200439855196001
0.15207740431015568,1.8422683252293528,4.2006503435342255
0.15268815693790733,1.841908489354259,4.200922015904601
0.15329890956565892,1.8415511031778367,4.201254347366004
0.15390966219341054,1.8411961680645121,4.201646696680743
0.1545204148211622,1.8408436839961673,4.202098312526297
0.1551311674489138,1.8404936495254458,4.202608339932333
0.15574192007666546,1.8401460617361136,4.2031758269192325
0.15635267270441708,1.839800916210395,4.203799731316277
0.1569634253321687,1.8394582070032013,4.204478927737074
0.15757417795992035,1.8391179266231341,4.205212214689037
0.15818493058767197,1.8387800660201485,4.205998321794338
0.15879568321542362,1.8384446145797293,4.206835917098827
0.15940643584317524,1.8381115601234392,4.20772361444722
0.16001718847092686,1.8377808889156675,4.2086599809005865
0.1606279410986785,1.8374525856764032,4.209643544174327
0.1612386937264301,1.8371266335998477,4.210672800074313
0.16184944635418172,1.8368030143786624,4.211746219908578
0.16246019898193337,1.8364817082336449,4.2128622578531605
0.163070951609685,1.8361626939486142,4.214019358250982
0.16368170423743664,1.8358459489102688,4.21521596282174
0.16429245686518826,1.835531449152797,4.2164505177640335
0.16490320949293988,1.8352191694069753,4.217721480727704
0.16551396212069153,1.8349090831535164,4.21902732763859
0.16612471474844315,1.8346011626804095,4.220366559355914
0.1667354673761948,1.8342953791439784,4.221737708144837
0.16734622000394642,1.8339917026334018,4.2231393439455776
0.16795697263169804,1.8336901022384178,4.224570080423512
0.16856772525944969,1.8333905461199402,4.2260285807838205
0.16917847788720128,1.8330930015833005,4.22751356333478
0.16978923051495293,1.8327974351538452,4.2290238067864525
0.17039998314270455,1.8325038126545994,4.2305581552702725
0.17101073577045617,1.8322120992857205,4.2321155230675975
0.17162148839820782,1.8319222597054452,4.233694899034856
0.17223224102595944,1.8316342581122693,4.235295350715516
0.17284299365371106,1.8313480583280586,4.236916028127595
0.1734537462814627,1.8310636238818219,4.238556167219778
0.17406449890921433,1.8307809180938697,4.240215092986713
0.17467525153696598,1.8304999041600787,4.241892222237643
0.1752860041647176,1.8302205452360012,4.2435870660128785
0.17589675679246922,1.8299428045205428,4.245299231642569
0.17650750942022086,1.8296666453389596,4.2470284244455705
0.17711826204797246,1.8293920312249095,4.248774449064582
0.1777290146757241,1.8291189260013168,4.250537210437303
0.17833976730347573,1.8288472938598035,4.252316714402769
0.17895051993122735,1.8285770994384551,4.254113067943984
0.179561272558979,1.8283083078976916,4.255926479068474
0.18017202518673062,1.8280408849940286,4.257757256330126
0.18078277781448224,1.8277747971515155,4.259605807996391
0.18139353044223389,1.827510011530655,4.261472640865216
0.1820042830699855,1.827246496094609,4.263358358739376
0.18261503569773715,1.8269842196725168,4.265263660563952
0.18322578832548878,1.8267231520197476,4.267189338235803
0.1838365409532404,1.8264632638749414,4.269136274094539
0.18444729358099204,1.8262045270136806,4.271105438104421
0.18505804620874364,1.8259469142986637,4.273097884738496
0.18566879883649529,1.8256903997262588,4.27511474957753
0.1862795514642469,1.8254349584693204,4.277157245635335
0.18689030409199853,1.825180566916184,4.27922665942483
0.18750105671975018,1.8249272027057368,4.2813243467793205
0.1881118093475018,1.8246748447585106,4.2834517284430484
0.18872256197525342,1.8244234733037248,4.285610285448182
0.18933331460300507,1.8241730699022374,4.287801554292601
0.18994406723075669,1.8239236174653772,4.290027121937844
0.19055481985850833,1.8236751002696296,4.292288620641623
0.19116557248625995,1.8234275039671748,4.29458772264561
0.19177632511401158,1.8231808155922826,4.2969261347340515
0.19238707774176322,1.8229350235635882,4.299305592684203
0.19299783036951482,1.822690117682273,4.301727855625057
0.19360858299726647,1.8224460891262055,4.304194700324865
0.19421933562501809,1.8222029304400913,4.3067079154259975
0.1948300882527697,1.8219606355217062,4.309269295646363
0.19544084088052135,1.8217191996042934,4.311880635966397
0.19605159350827298,1.8214786192352115,4.314543725821023
0.19666234613602462,1.821238892250945,4.317260343315517
0.19727309876377624,1.8210000177485857,4.320032249483963
0.19788385139152787,1.820761996053907,4.322861182608705
0.1984946040192795,1.8205248286861704,4.325748852619778
0.19910535664703113,1.8202885183197994,4.328696935591289
0.19971610927478275,1.8200530687430778,4.331707068352903
0.20032686190253438,1.8198184848140264,4.334780843233102
0.200937614530286,1.8195847724136232,4.337919802950764
0.20154836715803764,1.8193519383965446,4.341125435670858
0.20215911978578927,1.8191199905396012,4.344399170239987
0.20276987241354089,1.818888937488052,4.347742371615142
0.20338062504129253,1.8186587886999863,4.351156336500963
0.20399137766904415,1.8184295543889706,4.354642289207705
0.2046021302967958,1.8182012454651437,4.358201377742001
0.20521288292454742,1.8179738734749715,4.3618346701425486
0.20582363555229904,1.8177474505398543,4.365543151070779
0.2064343881800507,1.8175219892937906,4.369327718665953
0.2070451408078023,1.8172975028202973,4.373189181673917
0.2076558934355539,1.8170740045887928,4.377128256857016
0.20826664606330555,1.8168515083906402,4.381145566691847
0.20887739869105718,1.8166300282750525,4.385241637360741
0.20948815131880882,1.816409578485057,4.389416897041895
0.21009890394656044,1.8161901733937171,4.3936716745019755
0.21070965657431207,1.8159718274408003,4.398006197993532
0.2113204092020637,1.8157545550700815,4.402420594460114
0.21193116182981533,1.8155383706674704,4.406914889048499
0.21254191445756698,1.815323288500133,4.411489004928962
0.2131526670853186,1.8151093226567936,4.416142763422191
