frequency,refractiveIndex,absorption
0.0006107526277516292,2.3119185348941667,0.0018773635974493972
0.0012215052555032584,2.3115748032040724,0.00750296573073293
0.0018322578832548875,2.3110032443083224,0.01685739518135865
0.002443010511006517,2.310205836258107,0.029908481506395964
0.003053763138758146,2.309185322902421,0.046611564154337704
0.003664515766509775,2.30794518901386,0.06690986279521818
0.004275268394261404,2.3064896290721624,0.09073494266110889
0.004886021022013034,2.304823510247121,0.1180072672350559
0.005496773649764663,2.3029523302092976,0.14863682938443418
0.006107526277516292,2.3008821704658162,0.18252385103674168
0.006718278905267922,2.2986196459686945,0.21955954075939252
0.00732903153301955,2.2961718517735785,0.2596268981375763
0.00793978416077118,2.293546307538265,0.3026015536432078
0.008550536788522809,2.2907509006432645,0.34835263274122213
0.009161289416274438,2.2877938286933204,0.3967436332679276
0.009772042044026067,2.2846835421200047,0.4476333056126335
0.010382794671777697,2.2814286875549645,0.5008765259089096
0.010993547299529326,2.27803805258234,0.5563251532603557
0.011604299927280955,2.274520512410711,0.6138288629539829
0.012215052555032585,2.2708849789320187,0.673235948616585
0.012825805182784214,2.2671403525592626,0.7343940873129039
0.013436557810535843,2.263295477159373,0.7971510626391993
0.014047310438287471,2.2593590983235265,0.8613554419036995
0.0146580630660391,2.2553398251467147,0.9268572044851169
0.015268815693790731,2.251246095622361,0.9935083194014251
0.01587956832154236,2.2470861456974744,1.061163270990762
0.01649032094929399,2.242867981979718,1.129679532392819
0.017101073577045618,2.238599358040434,1.19891798721721
0.01771182620479725,2.23428775421706,1.2687433003912063
0.018322578832548876,2.229940360784507,1.3390242396930516
0.018933331460300507,2.2255640643377896,1.4096339499016202
0.019544084088052135,2.221165437206851,1.4804501818317208
0.020154836715803762,2.2167507297090743,1.5513554787840829
0.020765589343555393,2.2123258650343094,1.622237323125067
0.02137634197130702,2.207896436551437,1.6929882458327414
0.021987094599058652,2.2034677073232687,1.763505901908646
0.02259784722681028,2.199044611618055,1.8336931145685016
0.02320859985456191,2.194631758209803,1.9034578910953912
0.023819352482313542,2.1902334352661033,1.9727134131744943
0.02443010511006517,2.18585361663023,2.041378004435205
0.025040857737816797,2.181495969313826,2.109375077810188
0.025651610365568428,2.1771638620269536,2.176633065187588
0.026262362993320056,2.1728603745834425,2.2430853316873307
0.026873115621071687,2.1685883080309236,2.3086700767379797
0.027483868248823314,2.1643501953665694,2.3733302239728764
0.028094620876574942,2.1601483127110477,2.437013301803298
0.028705373504326573,2.155984690824563,2.499671316369021
0.0293161261320782,2.1518611268596977,2.561260618408874
0.029926878759829835,2.147779196256329,2.6217417654446944
0.030537631387581463,2.1437402646938195,2.681079380525764
0.03114838401533309,2.1397455000250525,2.739242008643235
0.03175913664308472,2.135795884125745,2.7962019717941953
0.03236988927083635,2.131892224600566,2.851935223551951
0.03298064189858798,2.1280351662952786,2.9064212038864845
0.03359139452633961,2.1242252025710333,2.959642694873272
0.034202147154091235,2.120462686303341,3.011585677832194
0.03481289978184286,2.1167478405741735,3.062239192350301
0.0354236524095945,2.113080769030874,3.111595197562199
0.036034405037346125,2.109461465890421,3.159648435989281
0.03664515766509775,2.1058898255719067,3.206396300175225
0.03725591029284938,2.102365651944009,3.2518387022972024
0.037866662920601014,2.0988886671777265,3.295977946882202
0.038477415548352635,2.095458520197779,3.338818606713777
0.03908816817610427,2.0920747947287825,3.3803674019752634
0.039698920803855904,2.0887370169348944,3.420633082645406
0.040309673431607525,2.0854446626536314,3.459626314131564
0.04092042605935916,2.0821971642266117,3.497359566106222
0.04153117868711079,2.0789939169315224,3.5338470044912986
0.04214193131486242,2.075834285021118,3.5691043865220955
0.04275268394261404,2.072717607376326,3.6031489588110284
0.04336343657036568,2.0696432027815344,3.6359993583230934
0.043974189198117304,2.0666103748311326,3.667675516170732
0.04458494182586893,2.063618416477088,3.698198564132138
0.04519569445362056,2.0606666142280523,3.727590743798096
0.045806447081372194,2.057754252010952,3.755875318252125
0.04641719970912382,2.054880614706499,3.783076486192994
0.04702795233687545,2.0520449913703867,3.8092192984122524
0.047638704964627084,2.0492466781521657,3.834329576545233
0.048249457592378704,2.0464849809240295,3.85843383401946
0.04886021022013034,2.043759217631812,3.8815591991321012
0.049470962847881966,2.0410687203805793,3.9037333401943264
0.050081715475633594,2.038412837267253,3.9249843926891335
0.05069246810338522,2.0357909339725615,3.945340888395298
0.051303220731136856,2.0332023951246714,3.964831686438798
0.05191397335888848,2.030646625446644,3.983485906240615
0.05252472598664011,2.0281230506997687,4.001332862335813
0.053135478614391746,2.0256311184346223,4.018402001046579
0.05374623124214337,2.023170298561542,4.034722838998331
0.054356983869895,2.020740083751945,4.05032490347291
0.05496773649764663,2.018339989681711,4.065237674600039
0.05557848912539826,2.015969555127581,4.079490529390774
0.056189241753149884,2.013628341927239,4.093112687622946
0.05679999438090152,2.011315934813489,4.106133159591041
0.057410747008653146,2.0090319411325845,4.118580695736034
0.05802149963640477,2.006775990456548,4.130483738173854
0.0586322522641564,2.004547734098868,4.141870374141376
0.059243004891908035,2.002346844542785,4.152768291382186
0.05985375751965967,2.0001730147909313,4.163204735492566
0.06046451014741129,1.9980259576447812,4.17320646925011
0.061075262775162925,1.9959054049220861,4.182799733946187
0.06168601540291455,1.9938111066200135,4.192010212741843
0.06229676803066618,1.9917428300314874,4.2008629960672
0.0629075206584178,1.9897003588217732,4.209382549080438
0.06351827328616944,1.9876834920720814,4.217592681202072
0.06412902591392107,1.985692043296592,4.225516517737146
0.0647397785416727,1.9837258394389286,4.233176473594198
0.06535053116942433,1.9817847198538614,4.24059422910948
0.06596128379717596,1.979868535279576,4.247790707978995
0.0665720364249276,1.977977146805602,4.254786057298874
0.06718278905267921,1.976110424841126,4.261599629711474
0.06779354168043085,1.9742682480881262,4.268249967650436
0.06840429430818247,1.9724505025234211,4.274754789674138
0.06901504693593409,1.970657080393469,4.281130978874582
0.06962579956368573,1.9688878792254196,4.287394573343182
0.07023655219143736,1.9671428008576668,4.293560758673643
0.070847304819189,1.965421750492854,4.299643862476527
0.07145805744694061,1.9637246357760272,4.305657350877688
0.07206881007469225,1.962051365900381,4.311613826969775
0.07267956270244387,1.9604018507427938,4.31752503118154
0.0732903153301955,1.9587760000310888,4.323401843527283
0.07390106795794714,1.9571737225447758,4.329254287695851
0.07451182058569876,1.9555949253507836,4.335091536935873
0.0751225732134504,1.954039513075493,4.340921921689824
0.07573332584120203,1.9525073872141834,4.346752938928955
0.07634407846895366,1.9509984454788387,4.352591263137088
0.07695483109670527,1.949512581185071,4.358442758890053
0.0775655837244569,1.9480496826787455,4.3643124949745
0.07817633635220854,1.9466096328027567,4.370204759988211
0.07878708897996017,1.945192308404258,4.376123079363102
0.07939784160771181,1.9437975798824914,4.382070233748493
0.08000859423546343,1.9424253107772622,4.3880482786926835
0.08061934686321505,1.9410753573979567,4.394058565557684
0.08123009949096668,1.9397475684929333,4.400101763602591
0.08184085211871832,1.9384417849589524,4.406177883167513
0.08245160474646994,1.9371578395902842,4.412286299891895
0.08306235737422157,1.9358955568669773,4.4184257798967455
0.08367311000197321,1.9346547527817557,4.424594505863017
0.08428386262972484,1.933435234704867,4.430790103934525
0.08489461525747646,1.932236801286198,4.4370096713750184
0.08550536788522808,1.9310592423938604,4.443249804908936
0.08611612051297972,1.9299023390884198,4.449506629672267
0.08672687314073135,1.928765863631867,4.455775828703478
0.08733762576848299,1.927649579530393,4.462052672900363
0.08794837839623461,1.926553241609972,4.468332051372078
0.08855913102398623,1.9254765961237204,4.474608502112304
0.08916988365173786,1.9244193808899523,4.480876242922497
0.0897806362794895,1.923381325459826,4.487129202511795
0.09039138890724112,1.9223621513134264,4.493361051702245
0.09100214153499275,1.9213615720831152,4.499565234667216
0.09161289416274439,1.9203792938029292,4.505735000132106
0.09222364679049602,1.9194150151828082,4.5118634324658125
0.09283439941824764,1.918468427906382,4.517943482593582
0.09344515204599926,1.9175392169510397,4.523967998661437
0.0940559046737509,1.9166270609289802,4.529929756383261
0.09466665730150253,1.915731632447925,4.53582148900399
0.09527740992925417,1.9148525984901539,4.541635916811168
0.09588816255700579,1.9139896208085072,4.547365776130149
0.09649891518475741,1.9131423563380034,4.5530038477394
0.09710966781250904,1.912310457621677,4.558542984642579
0.09772042044026068,1.9114935732492653,4.563976139137074
0.09833117306801231,1.9106913483073404,4.569296389119982
0.09894192569576393,1.9099034248394953,4.574496963574255
0.09955267832351557,1.9091294423151746,4.579571267179507
0.10016343095126719,1.9083690381057516,4.584512903995251
0.10077418357901882,1.907621847966443,4.589315700165584
0.10138493620677044,1.906887506522666,4.59397372559698
0.10199568883452208,1.9061656477594469,4.598481314564815
0.10260644146227371,1.9054559055124833,4.602833085204313
0.10321719409002535,1.9047579139595032,4.607023957848076
0.10382794671777695,1.9040713081105454,4.611049172171695
0.10443869934552859,1.9033957242958246,4.614904303115486
0.10504945197328022,1.9027308006498578,4.618585275551409
0.10566020460103186,1.902076177590544,4.6220883776684225
0.10627095722878349,1.9014314982919245,4.625410273053483
0.10688170985653511,1.9007964091493808,4.6285480114483795
0.10749246248428675,1.900170560236042,4.631499038166563
0.10810321511203837,1.8995536057492304,4.634261202158345
0.10871396773979,1.8989452044458008,4.636832762715724
0.10932472036754162,1.8983450200652623,4.639212394813061
0.10993547299529326,1.8977527217396375,4.641399193083388
0.11054622562304489,1.897167984389035,4.643392674433359
0.11115697825079653,1.8965904891019763,4.6451927793057255
0.11176773087854816,1.8960199234995743,4.646799871599582
0.11237848350629977,1.8954559820827,4.648214737265489
0.1129892361340514,1.894898366561343,4.649438581593148
0.11359998876180304,1.8943467861654295,4.650473025217109
0.11421074138955467,1.89380095793642,4.651320098865293
0.11482149401730629,1.8932606069990778,4.65198223688334
0.11543224664505793,1.8927254668128577,4.652462269567173
0.11604299927280955,1.8921952794024395,4.652763414342903
0.11665375190056118,1.8916697955669917,4.652889265834485
0.1172645045283128,1.8911487750678193,4.652843784863113
0.11787525715606444,1.8906319867941321,4.652631286426481
0.11848600978381607,1.890119208906723,4.652256426706708
0.1190967624115677,1.8896102289594168,4.651724189160256
0.11970751503931934,1.8891048439982454,4.651039869744784
0.12031826766707095,1.8886028606383327,4.650209061339388
0.12092902029482258,1.8881040951185804,4.649237637418242
0.12153977292257422,1.887608373334288,4.64813173503801
0.12215052555032585,1.8871155308479184,4.646897737201329
0.12276127817807747,1.8866254128782818,4.645542254659847
0.1233720308058291,1.886137874268475,4.644072107222053
0.12398278343358073,1.8856527794329705,4.642494304630524
0.12459353606133236,1.8851700022843128,4.640816027074627
0.125204288689084,1.8846894261399323,4.639044605405146
0.1258150413168356,1.884210943609642,4.637187501116917
0.12642579394458725,1.8837344564644345,4.635252286165073
0.12703654657233887,1.8832598754872345,4.633246622680882
0.12764729920009052,1.8827871203063227,4.631178242651713
0.12825805182784214,1.8823161192121733,4.629054927629325
0.12886880445559376,1.881846808958488,4.626884488529254
0.1294795570833454,1.8813791345482516,4.624674745582368
0.13009030971109703,1.880913049005652,4.622433508499577
0.13070106233884865,1.8804485131347413,4.6201685569065924
0.13131181496660027,1.8799854952657438,4.617887621106904
0.13192256759435192,1.879523970989912,4.615598363225743
0.13253332022210354,1.879063922883882,4.613308358787748
0.1331440728498552,1.8786053402244636,4.611025078779144
0.13375482547760678,1.8781482186948193,4.6087558722401365
0.13436557810535843,1.877692560082996,4.606507949434216
0.13497633073311005,1.8772383719737604,4.6042883656347735
0.1355870833608617,1.876785667434711,4.6021040055702445
0.13619783598861332,1.8763344646976017,4.599961568562941
0.13680858861636494,1.8758847868358433,4.597867554396558
0.13741934124411656,1.8754366614390965,4.595828249942254
0.13803009387186818,1.874990120285896,4.593849716572285
0.13864084649961983,1.8745451990151976,4.591937778385031
0.13925159912737145,1.8741019367977378,4.5900980112643515
0.1398623517551231,1.8736603760080732,4.5883357327918795
0.14047310438287472,1.87322056189814,4.586655993028754
0.14108385701062634,1.872782542273141,4.585063566179059
0.141694609638378,1.872346367170567,4.583562943146748
0.1423053622661296,1.871912088543094,4.5821583249917825
0.14291611489388123,1.8714797599460957,4.580853617291559
0.14352686752163288,1.8710494362304755,4.579652425408895
0.1441376201493845,1.8706211732414697,4.578558050665675
0.14474837277713615,1.8701950275240693,4.577573487419396
0.14535912540488774,1.8697710560356469,4.576701421035751
0.14596987803263936,1.8693493158663657,4.575944226750472
0.146580630660391,1.8689298639678835,4.575303969408128
0.14719138328814263,1.8685127568908608,4.574782404065997
0.14780213591589428,1.8680980505317129,4.574380977447576
0.1484128885436459,1.867685799889042,4.574100830228802
0.14902364117139752,1.8672760588301265,4.5739428001376865
0.14963439379914917,1.8668688798678117,4.573907425846134
0.1502451464269008,1.8664643139481256,4.573994951631812
0.15085589905465244,1.8660624102488954,4.5742053327854295
0.15146665168240406,1.865663215989596,4.57453824173684
0.15207740431015568,1.8652667762526567,4.5749930748732766
0.15268815693790733,1.8648731338163882,4.575568960021138
0.15329890956565892,1.8644823289996766,4.576264764559901
0.15390966219341054,1.8640943995185533,4.577079104138587
0.1545204148211622,1.8637093803547153,4.578010351961271
0.1551311674489138,1.8633273036360465,4.5790566486092095
0.15574192007666546,1.8629481985291547,4.58021591236529
0.15635267270441708,1.8625720911439048,4.581485850004948
0.1569634253321687,1.8621990044499181,4.5828639680201
0.15757417795992035,1.8618289582049576,4.584347584237686
0.15818493058767197,1.8614619688951088,4.585933839797955
0.15879568321542362,1.8610980496866318,4.587619711454141
0.15940643584317524,1.8607372103893407,4.589402024157629
0.16001718847092686,1.8603794574313355,4.591277463889361
0.1606279410986785,1.8600247938448944,4.593242590701215
0.1612386937264301,1.8596732192633139,4.59529385192908
0.16184944635418172,1.8593247299284554,4.597427595539465
0.16246019898193337,1.8589793187087402,4.59964008357275
0.163070951609685,1.8586369751273255,4.601927505644994
0.16368170423743664,1.8582976854001554,4.604285992471806
0.16429245686518826,1.8579614324835836,4.606711629376439
0.16490320949293988,1.8576281961312335,4.609200469746762
0.16551396212069153,1.8572979529597584,4.611748548404436
0.16612471474844315,1.8569706765231389,4.614351894851156
0.1667354673761948,1.856646337395145,4.6170065463572225
0.16734622000394642,1.8563249032595825,4.619708560858496
0.16795697263169804,1.856006339007929,4.622454029628316
0.16856772525944969,1.8556906068439436,4.625239089692243
0.16917847788720128,1.8553776663948436,4.628059935953703
0.16978923051495293,1.8550674748286178,4.630912833000843
0.17039998314270455,1.8547599869770475,4.633794126564301
0.17101073577045617,1.8544551554639876,4.636700254598099
0.17162148839820782,1.85415293083847,4.639627757956862
0.17223224102595944,1.853853261712173,4.642573290642134
0.17284299365371106,1.8535560949008043,4.645533629595212
0.1734537462814627,1.853261375568939,4.64850568401177
0.17406449890921433,1.8529690473778537,4.651486504156656
0.17467525153696598,1.8526790526358912,4.654473289659381
0.1752860041647176,1.8523913324509058,4.657463397270972
0.17589675679246922,1.8521058268843145,4.660454348064228
0.17650750942022086,1.8518224751063121,4.663443834063513
0.17711826204797246,1.8515412155517832,4.666429724288146
0.1777290146757241,1.8512619860764679,4.669410070198524
0.17833976730347573,1.850984724112934,4.672383110534044
0.17895051993122735,1.8507093668259167,4.675347275533163
0.179561272558979,1.8504358512665937,4.678301190529907
0.18017202518673062,1.8501641145253709,4.681243678920483
0.18078277781448224,1.849894093882771,4.684173764497139
0.18139353044223389,1.849625726958007,4.687090673147122
0.1820042830699855,1.8493589518548643,4.689993833917544
0.18261503569773715,1.8490937073044964,4.692882879447292
0.18322578832548878,1.8488299328047724,4.695757645770655
0.1838365409532404,1.848567568755825,4.698618171497648
0.18444729358099204,1.8483065565914485,4.701464696378473
0.18505804620874364,1.8480468389060365,4.704297659261904
0.18566879883649529,1.84778835957674,4.70711769545684
0.1862795514642469,1.8475310638805629,4.709925633511925
0.18689030409199853,1.8472748986061185,4.712722491425272
0.18750105671975018,1.8470198121597903,4.715509472301484
0.1881118093475018,1.8467657546660698,4.71828795947226
0.18872256197525342,1.846512678061842,4.721059511100597
0.18933331460300507,1.8462605361844366,4.723825854288176
0.18994406723075669,1.8460092848532594,4.726588878707584
0.19055481985850833,1.8457588819448525,4.729350629782622
0.19116557248625995,1.8455092874612495,4.732113301440712
0.19177632511401158,1.845260463591513,4.7348792284627175
0.19238707774176322,1.8450123747663612,4.737650878456904
0.19299783036951482,1.8447649877058185,4.740430843483778
0.19360858299726647,1.8445182714598338,4.743221831360192
0.19421933562501809,1.8442721974418528,4.746026656672534
0.1948300882527697,1.8440267394553227,4.748848231527384
0.19544084088052135,1.8437818737131582,4.751689556070213
0.19605159350827298,1.8435375788502006,4.754553708804395
0.19666234613602462,1.8432938359287243,4.75744383673885
0.19727309876377624,1.8430506284370738,4.760363145398188
0.19788385139152787,1.8428079422815222,4.76331488872553
0.1984946040192795,1.8425657657714725,4.76630235891026
0.19910535664703113,1.8423240895981323,4.769328876171645
0.19971610927478275,1.842082906806816,4.772397778530278
0.20032686190253438,1.841842212763043,4.77551241159828
0.200937614530286,1.8416020051126187,4.778676118419184
0.20154836715803764,1.8413622837359032,4.781892229387696
0.20215911978578927,1.8411230506964715,4.785164052279069
0.20276987241354089,1.8408843101844146,4.788494862418029
0.20338062504129253,1.8406460684545047,4.791887893014388
0.20399137766904415,1.8404083337594936,4.795346325694495
0.2046021302967958,1.8401711162788044,4.798873281254144
0.20521288292454742,1.8399344280428884,4.8024718106589335
0.20582363555229904,1.839698282853541,4.806144886318132
0.2064343881800507,1.8394626962004619,4.809895393653051
0.2070451408078023,1.839227685174358,4.813726122985366
0.2076558934355539,1.838993268376903,4.817639761764542
0.20826664606330555,1.8387594658278483,4.821638887154766
0.20887739869105718,1.8385262988696125,4.825725959001046
0.20948815131880882,1.8382937900696599,4.8299033131902185
0.21009890394656044,1.8380619631209771,4.83417315542347
0.21070965657431207,1.8378308427409833,4.838537555415008
0.2113204092020637,1.83760045456917,4.8429984415291125
0.21193116182981533,1.8373708250638026,4.8475575958674595
0.21254191445756698,1.837141981397987,4.8522166498163335
0.2131526670853186,1.836913951355416,4.856977080062568
0.21376341971307022,1.8366867632260975,4.861840205084468
0.21437417234082187,1.8364604457023632,4.86680718212373
