frequency,refractiveIndex,absorption
0.0006107526277516292,2.268011210546971,0.0015244570791797054
0.0012215052555032584,2.2676774740904615,0.006091121908012358
0.0018322578832548875,2.2671228260658784,0.013679945810741135
0.002443010511006517,2.2663496173397015,0.02425774804234988
0.003053763138758146,2.2653611030471072,0.03777856132466595
0.003664515766509775,2.264161407428143,0.05418410570514961
0.004275268394261404,2.262755479886618,0.07340438125630609
0.004886021022013034,2.261149043162416,0.09535836798555386
0.005496773649764663,2.2593485346416813,0.11995481955748515
0.006107526277516292,2.2573610419299106,0.14709313608618277
0.006718278905267922,2.255194233878627,0.17666430035773253
0.00732903153301955,2.25285628828696,0.2085518613957459
0.00793978416077118,2.2503558174963443,0.24263294927053175
0.008550536788522809,2.2477017930622805,0.27877930544368845
0.009161289416274438,2.2449034706255544,0.3168583136899294
0.009772042044026067,2.2419703160204567,0.3567340176918045
0.010382794671777697,2.2389119335548022,0.3982681127001781
0.010993547299529326,2.235737997280332,0.44132090013023034
0.011604299927280955,2.2324581859480035,0.4857521955569309
0.012215052555032585,2.229082122214732,0.5314221822250705
0.012825805182784214,2.225619316541035,0.5781922038442456
0.013436557810535843,2.222079116096074,0.6259254920510917
0.014047310438287471,2.218470658870681,0.6744878254503833
0.0146580630660391,2.2148028330926293,0.7237481185639243
0.015268815693790731,2.2110842419429506,0.7735789402981103
0.01587956832154236,2.207323173488602,0.8238569626733558
0.01649032094929399,2.2035275756758774,0.8744633415344052
0.017101073577045618,2.1997050361702395,0.9252840317775667
0.01771182620479725,2.1958627667816115,0.9762100402928879
0.018322578832548876,2.1920075921788045,1.0271376203343086
0.018933331460300507,2.188145942571695,1.0779684114085046
0.019544084088052135,2.1842838500240225,1.1286095290266243
0.020154836715803762,2.1804269480521175,1.1789736088058482
0.020765589343555393,2.176580474164243,1.228978809454103
0.02137634197130702,2.1727492750006423,1.2785487791355057
0.021987094599058652,2.1689378137443103,1.327612589609669
0.02259784722681028,2.1651501794866403,1.3761046423790544
0.02320859985456191,2.1613900982486176,1.4239645508745573
0.023819352482313542,2.1576609453773825,1.4711370024753114
0.02443010511006517,2.1539657590579693,1.5175716038985954
0.025040857737816797,2.150307254701268,1.5632227132240732
0.025651610365568428,2.14668783999037,1.6080492615348727
0.026262362993320056,2.1431096303886927,1.6520145668766255
0.026873115621071687,2.1395744649338777,1.695086142957301
0.027483868248823314,2.1360839221613297,1.7372355047392802
0.028094620876574942,2.132639336020251,1.778437972815853
0.028705373504326573,2.1292418116628347,1.8186724782170416
0.0293161261320782,2.1258922410039696,1.8579213690575846
0.029926878759829835,2.12259131796423,1.8961702202243529
0.030537631387581463,2.1193395533231105,1.933407647100628
0.03114838401533309,2.1161372891223333,1.9696251241430294
0.03175913664308472,2.112984712570809,2.0048168089609177
0.03236988927083635,2.109881869413241,2.0389793723997696
0.03298064189858798,2.1068286767337985,2.072111834996923
0.03359139452633961,2.1038249351745195,2.1042154100612436
0.034202147154091235,2.1008703405553906,2.135293353524842
0.03481289978184286,2.097964494889437,2.1653508206267453
0.0354236524095945,2.095106916791569,2.194394729410966
0.036034405037346125,2.0922970512847243,2.222433630958087
0.03664515766509775,2.0895342790107327,2.24947758621437
0.03725591029284938,2.0868179248567453,2.275538049239698
0.037866662920601014,2.084147266010772,2.3006277566591313
0.038477415548352635,2.081521539462143,2.324760623077181
0.03908816817610427,2.0789399489644436,2.34795164219222
0.039698920803855904,2.076401671479926,2.3702167933363554
0.040309673431607525,2.0739058631252902,2.3915729531557766
0.04092042605935916,2.0714516646395995,2.4120378121451895
0.04153117868711079,2.069038206395382,2.4316297957481496
0.04214193131486242,2.0666646129742956,2.4503679897409905
0.04275268394261404,2.0643300073287314,2.468272069623906
0.04336343657036568,2.0620335145505555,2.4853622337520807
0.043974189198117304,2.059774265267992,2.501659139951389
0.04458494182586893,2.057551398691181,2.517183845375366
0.04519569445362056,2.0553640653265783,2.531957749374462
0.045806447081372194,2.053211429379735,2.5460025391630157
0.04641719970912382,2.051092670865449,2.5593401380844516
0.04702795233687545,2.049006987443678,2.571992656290932
0.047638704964627084,2.0469535959988545,2.58398234366923
0.048249457592378704,2.0449317339796838,2.595331544859091
0.04886021022013034,2.0429406605157316,2.6060626562269267
0.049470962847881966,2.0409796573264662,2.616198084670432
0.050081715475633594,2.0390480294377302,2.6257602081452935
0.05069246810338522,2.0371451057199437,2.634771337817552
0.051303220731136856,2.035270239261669,2.6432536817577517
0.05191397335888848,2.0334228075915464,2.6512293101062014
0.05252472598664011,2.0316022127609505,2.658720121647285
0.053135478614391746,2.029807881299135,2.665747811743422
0.05374623124214337,2.0280392640520266,2.672333841587005
0.054356983869895,2.0262958359152483,2.678499408736997
0.05496773649764663,2.02457709547145,2.6842654189162154
0.05557848912539826,2.0228825645414177,2.689652459049121
0.056189241753149884,2.0212117876580096,2.694680771528929
0.05679999438090152,2.0195643314714036,2.699370229705347
0.057410747008653146,2.0179397840937146,2.7037403145900867
0.05802149963640477,2.0163377543905825,2.707810092780602
0.0586322522641564,2.0147578712268746,2.7115981956044743
0.059243004891908035,2.013199782673255,2.715122799490537
0.05985375751965967,2.011663155179975,2.7184016075730755
0.06046451014741129,2.01014767272382,2.7214518325371118
0.061075262775162925,2.008653035933825,2.7242901807135853
0.06168601540291455,2.007178961200988,2.7269328374321233
0.06229676803066618,2.0057251797768725,2.7293954536399845
0.0629075206584178,2.0042914368656737,2.731693133794125
0.06351827328616944,2.002877490714005,2.733840425032321
0.06412902591392107,2.0014831117023486,2.73585130762797
0.0647397785416727,2.0001080814418453,2.737739186731431
0.06535053116942433,1.9987521918798044,2.7395168853985896
0.06596128379717596,1.9974152444170414,2.7411966389055165
0.0665720364249276,1.9960970490399326,2.742790090345509
0.06718278905267921,1.9947974234697696,2.7443082875026104
0.06779354168043085,1.993516192331826,2.7457616809928367
0.06840429430818247,1.992253186346272,2.7471601236624212
0.06901504693593409,1.99100824154289,2.7485128712291567
0.06962579956368573,1.9897811985013254,2.749828584150366
0.07023655219143736,1.9885719016184056,2.751115330698842
0.070847304819189,1.9873801984038995,2.752380591225594
0.07145805744694061,1.9862059388058573,2.753631263584135
0.07206881007469225,1.985048974566586,2.7548736696920164
0.07267956270244387,1.9839091586100572,2.75611356319838
0.0732903153301955,1.9827863444614768,2.7573561382281793
0.07390106795794714,1.981680385699549,2.7586060391687433
0.07451182058569876,1.9805911354418524,2.7598673714640087
0.0751225732134504,1.9795184458636197,2.76114371337811
0.07573332584120203,1.9784621677500762,2.7624381286899338
0.07634407846895366,1.9774221500824043,2.7637531802769932
0.07695483109670527,1.9763982396572644,2.7650909445463636
0.0775655837244569,1.9753902807397323,2.766453026668124
0.07817633635220854,1.9743981147494039,2.7678405765664684
0.07878708897996017,1.9734215799793309,2.7692543056207772
0.07939784160771181,1.9724605113473825,2.7706945040294646
0.08000859423546343,1.971514740179541,2.7721610587875456
0.08061934686321505,1.970584094024581,2.773653472227759
0.08123009949096668,1.9696683964995094,2.775170881075409
0.08184085211871832,1.9687674671650854,2.7767120759645816
0.08245160474646994,1.9678811214306986,2.7782755213655426
0.08306235737422157,1.9670091704878125,2.779859375869533
0.08367311000197321,1.966151421271152,2.7814615127797064
0.08428386262972484,1.9653076764467752,2.7830795409552733
0.08489461525747646,1.9644777344261002,2.7847108258552264
0.08550536788522808,1.9636613894049786,2.78635251073057
0.08611612051297972,1.9628584314268243,2.788001537910729
0.08672687314073135,1.9620686464688055,2.7896546701329976
0.08733762576848299,1.9612918165500863,2.791308511862186
0.08794837839623461,1.9605277198610618,2.792959530549303
0.08855913102398623,1.9597761309125363,2.7946040777778927
0.08916988365173786,1.959036820703762,2.7962384102475575
0.0897806362794895,1.9583095569082394,2.7978587105449875
0.09039138890724112,1.957594104076189,2.799461107653403
0.09100214153499275,1.9568902238525638,2.8010416971525456
0.09161289416274439,1.9561976752094954,2.802596561061986
0.09222364679049602,1.9555162146920335,2.8041217872822224
0.09283439941824764,1.954845596676063,2.8056134885881794
0.09344515204599926,1.9541855736372469,2.8070678211326747
0.0940559046737509,1.9535358964298812,2.8084810024169493
0.09466665730150253,1.9528963145745128,2.8098493286885886
0.09527740992925417,1.9522665765532152,2.8111691917275694
0.09588816255700579,1.9516464301113732,2.812437094983106
0.09649891518475741,1.951035622564888,2.813649669026586
0.09710966781250904,1.9504339011116798,2.81480368628649
0.09772042044026068,1.9498410131464001,2.8158960750341153
0.09833117306801231,1.9492567065772781,2.81692393259093
0.09894192569576393,1.9486807301440154,2.81788453772943
0.09955267832351557,1.948112833735705,2.818775362243829
0.10016343095126719,1.9475527687077179,2.8195940816664717
0.10077418357901882,1.9470002881965613,2.820338585110914
0.10138493620677044,1.9464551474317138,2.821006984222873
0.10199568883452208,1.945917104043467,2.821597621224107
0.10260644146227371,1.9453859183658428,2.8221090760368632
0.10321719409002535,1.9448613537336723,2.8225401724779755
0.10382794671777695,1.9443431767729464,2.822889983515886
0.10443869934552859,1.943831157683602,2.823157835585628
0.10504945197328022,1.9433250705139147,2.823343311959567
0.10566020460103186,1.9428246934257254,2.823446255175221
0.10627095722878349,1.9423298089497527,2.8234667685232098
0.10688170985653511,1.9418402042302914,2.823405216601638
0.10749246248428675,1.9413556712586206,2.8232622249466277
0.10810321511203837,1.9408760070945166,2.8230386787499087
0.10871396773979,1.9404010140752785,2.822735720678704
0.10932472036754162,1.9399305000117373,2.822354747814857
0.10993547299529326,1.9394642783707607,2.8218974077324037
0.11054622562304489,1.9390021684438161,2.8213655937373048
0.11115697825079653,1.9385439955011932,2.820761439292639
0.11176773087854816,1.9380895909315496,2.82008731165746
0.11237848350629977,1.9376387923664855,2.8193458047685467
0.1129892361340514,1.9371914437899018,2.8185397313967644
0.11359998876180304,1.9367473956319488,2.817672114611747
0.11421074138955467,1.936306504847431,2.816746178590611
0.11482149401730629,1.9358686349785732,2.8157653388090633
0.11543224664505793,1.9354336562021055,2.814733191653144
0.11604299927280955,1.9350014453606867,2.8136535034929278
0.11665375190056118,1.9345718859787175,2.8125301992611225
0.1172645045283128,1.9341448682626592,2.8113673505786103
0.11787525715606444,1.9337202890860168,2.8101691634733093
0.11848600978381607,1.9332980519591878,2.8089399657363647
0.1190967624115677,1.9328780669844303,2.8076841939632025
0.11970751503931934,1.9324602507962476,2.8064063803253605
0.12031826766707095,1.9320445264875237,2.8051111391208075
0.12092902029482258,1.9316308235217972,2.803803153150747
0.12153977292257422,1.9312190776320826,2.8024871599694245
0.12215052555032585,1.930809230706709,2.801167938055557
0.12276127817807747,1.930401230662652,2.799850292951724
0.1233720308058291,1.9299950313068994,2.7985390434191375
0.12398278343358073,1.9295905921863965,2.7972390076533977
0.12459353606133236,1.9291878784271546,2.7959549896071825
0.125204288689084,1.9287868605631393,2.794691765463644
0.1258150413168356,1.928387514355564,2.793454070304848
0.12642579394458725,1.9279898206032418,2.792246585016373
0.12703654657233887,1.927593764944671,2.791073923469748
0.12764729920009052,1.9271993376525414,2.7899406200219263
0.12825805182784214,1.926806533421344,2.7888511173689707
0.12886880445559376,1.9264153511488171,2.7878097547909135
0.1294795570833454,1.926025793711925,2.7868207568214727
0.13009030971109703,1.9256378677380932,2.785888222375192
0.13070106233884865,1.9252515833724297,2.7850161143624277
0.13131181496660027,1.9248669540416432,2.7842082498202796
0.13192256759435192,1.9244839962153821,2.7834682905863497
0.13253332022210354,1.9241027291657045,2.782799734538275
0.1331440728498552,1.923723174725387,2.7822059074221803
0.13375482547760678,1.9233453570457677,2.7816899552888503
0.13436557810535843,1.9229693023547971,2.7812548375547066
0.13497633073311005,1.9225950387159796,2.7809033207040272
0.1355870833608617,1.9222225957888495,2.7806379726429418
0.13619783598861332,1.9218520045916185,2.7804611577179768
0.13680858861636494,1.9214832972666134,2.780375032405738
0.13741934124411656,1.9211165068490923,2.780381541680269
0.13803009387186818,1.920751667040024,2.780482416061634
0.13864084649961983,1.9203888119833632,2.780679169347157
0.13925159912737145,1.9200279760483658,2.7809730970247246
0.1398623517551231,1.9196691936174217,2.7813652753651743
0.14047310438287472,1.9193124988798962,2.7818565611888038
0.14108385701062634,1.9189579256324143,2.782447592299602
0.141694609638378,1.9186055070860044,2.7831387885774213
0.1423053622661296,1.9182552756804965,2.783930353718455
0.14291611489388123,1.917907262906528,2.7848222776102323
0.14352686752163288,1.9175614991354903,2.7858143393281396
0.1441376201493845,1.9172180134577148,2.7869061107362634
0.14474837277713615,1.9168768335291708,2.788096960676178
0.14535912540488774,1.9165379854269164,2.789386059723425
0.14596987803263936,1.9162014935135172,2.7907723854924114
0.146580630660391,1.9158673803106072,2.7922547284672916
0.14719138328814263,1.9155356663817578,2.7938316983355693
0.14780213591589428,1.9152063702247712,2.79550173080117
0.1484128885436459,1.9148795081734975,2.7972630948506634
0.14902364117139752,1.9145550943092462,2.7991139004473315
0.14963439379914917,1.914233140381834,2.8010521066253706
0.1502451464269008,1.9139136557402805,2.8030755299567245
0.15085589905465244,1.9135966472731485,2.805181853361621
0.15146665168240406,1.9132821193584844,2.807368635233722
0.15207740431015568,1.9129700738233055,2.809633318850528
0.15268815693790733,1.912660509912543,2.811973242037722
0.15329890956565892,1.9123534242673421,2.814385647058495
0.15390966219341054,1.9120488109125784,2.8168676906953376
0.1545204148211622,1.9117466612534482,2.8194164544943967
0.1551311674489138,1.9114469640809588,2.8220289551406887
0.15574192007666546,1.9111497055861242,2.824702154933403
0.15635267270441708,1.9108548693826606,2.8274329723294898
0.1569634253321687,1.9105624365379485,2.83021829252486
0.15757417795992035,1.91027238561202,2.833054978042747
0.15818493058767197,1.909984692704313,2.835939879297812
0.15879568321542362,1.9096993315079023,2.8388698451063217
0.15940643584317524,1.9094162733709372,2.841841733112409
0.16001718847092686,1.9091354873649624,2.8448524201011267
0.1606279410986785,1.9088569403598181,2.8478988121694453
0.1612386937264301,1.9085805971047862,2.850977854726847
0.16184944635418172,1.908306420315644,2.8540865422984183
0.16246019898193337,1.9080343707672807,2.8572219281033617
0.163070951609685,1.907764407391516,2.8603811333827003
0.16368170423743664,1.9074964873797553,2.8635613564520925
0.16429245686518826,1.90723056629012,2.8667598814541013
0.16490320949293988,1.906966598158658,2.869974086787913
0.16551396212069153,1.9067045356142727,2.873201453194048
0.16612471474844315,1.9064443299969636,2.8764395714721043
0.1667354673761948,1.906185931479008,2.8796861498132804
0.16734622000394642,1.9059292891886757,2.882939020726502
0.16795697263169804,1.9056743513360987,2.8861961475433446
0.16856772525944969,1.9054210653408865,2.889455630482661
0.16917847788720128,1.9051693779611099,2.892715712262027
0.16978923051495293,1.9049192354232505,2.895974783241087
0.17039998314270455,1.9046705835527316,2.899231386084929
0.17101073577045617,1.9044233679046456,2.9024842199363623
0.17162148839820782,1.9041775338942897,2.905732144087969
0.17223224102595944,1.9039330269271435,2.9089741811451777
0.17284299365371106,1.9036897925279082,2.9122095196747058
0.1734537462814627,1.9034477764682456,2.9154375163323714
0.17406449890921433,1.9032069248928642,2.9186576974673857
0.17467525153696598,1.9029671844436,2.9218697602004475
0.1752860041647176,1.9027285023811524,2.9250735729757866
0.17589675679246922,1.9024908267041496,2.92826917558753
0.17650750942022086,1.9022541062652218,2.931456778682985
0.17711826204797246,1.9020182908837773,2.9346367627471994
0.1777290146757241,1.9017833314551864,2.937809676573956
0.17833976730347573,1.9015491800560915,2.940976235230035
0.17895051993122735,1.9013157900455722,2.944137317521857
0.179561272558979,1.9010831161619195,2.947293962973642
0.18017202518673062,1.900851114614772,2.9504473683288137
0.18078277781448224,1.900619743172393,2.95359888358749
0.18139353044223389,1.9003889612438842,2.9567500075933335
0.1820042830699855,1.9001587299561413,2.959902383186488
0.18261503569773715,1.8999290122253767,2.9630577919372723
0.18322578832548878,1.899699772823056,2.9662181484804675
0.1838365409532404,1.899470978436106,2.969385494467625
0.18444729358099204,1.8992425977212741,2.9725619921579503
0.18505804620874364,1.8990146013535327,2.9757499176693853
0.18566879883649529,1.8987869620684497,2.9789516539105323
0.1862795514642469,1.8985596546984527,2.9821696832182476
0.18689030409199853,1.8983326562029421,2.9854065797226133
0.18750105671975018,1.8981059456922231,2.988665001465612
0.1881118093475018,1.8978795044452466,2.991947682297165
0.18872256197525342,1.8976533159211644,2.995257423575376
0.18933331460300507,1.8974273657647274,2.9985970856965287
0.18994406723075669,1.8972016418055704,3.001969579481908
0.19055481985850833,1.8969761340514453,3.005377857448226
0.19116557248625995,1.896750834675481,3.0088249049888454
0.19177632511401158,1.8965257379975675,3.01231373149331
0.19238707774176322,1.8963008404599826,3.0158473614327925
0.19299783036951482,1.8960761405973794,3.0194288254384283
0.19360858299726647,1.8958516390012938,3.0230611514002
0.19421933562501809,1.8956273382793203,3.0267473556134075
0.1948300882527697,1.8954032430091423,3.030490433999591
0.19544084088052135,1.8951793596875952,3.0342933534279526
0.19605159350827298,1.8949556966749734,3.0381590431641947
0.19666234613602462,1.894732264134788,3.042090386470758
0.19727309876377624,1.8945090739692056,3.0460902123849953
0.19788385139152787,1.8942861397504072,3.0501612876977084
0.1984946040192795,1.894063476648103,3.0543063091566367
0.19910535664703113,1.8938411013534724,3.0585278959167526
0.19971610927478275,1.8936190319997805,3.0628285822589447
0.20032686190253438,1.8933972880799503,3.067210810597975
0.200937614530286,1.893175890361362,3.071676924798782
0.20154836715803764,1.8929548607981648,3.076229163820058
0.20215911978578927,1.892734222441384,3.080869655701924
0.20276987241354089,1.8925139993471176,3.0856004119139473
0.20338062504129253,1.892294216483109,3.090423322078455
0.20399137766904415,1.8920748996339927,3.095340149082574
0.2046021302967958,1.8918560753055085,3.100352524590857
0.20521288292454742,1.8916377706279706,3.1054619449702145
0.20582363555229904,1.89142001325929,3.11066976763585
0.2064343881800507,1.8912028312878395,3.115977207826464
0.2070451408078023,1.89098625313544,3.121385335816074
0.2076558934355539,1.890770307460764,3.1268950745667423
0.20826664606330555,1.8905550230634167,3.132507197826924
0.20887739869105718,1.8903404287889825,3.138222328677548
0.20948815131880882,1.8901265534352918,3.1440409385268326
0.21009890394656044,1.8899134256601688,3.1499633465540415
0.21070965657431207,1.8897010738909106,3.1559897195993125
0.2113204092020637,1.8894895262357416,3.1621200724981198
0.21193116182981533,1.8892788103974676,3.16835426885427
0.21254191445756698,1.8890689535895626,3.1746920222471093
