frequency,refractiveIndex,absorption
0.0006107526277516292,2.4924276559772873,0.001858233426594341
0.0012215052555032584,2.4921374852651077,0.007429072719456617
0.0018322578832548875,2.4916545133018264,0.01670095553705404
0.002443010511006517,2.4909797050593188,0.029654679813933025
0.003053763138758146,2.490114403817161,0.04626350572623715
0.003664515766509775,2.489060323588394,0.06649329687882036
0.004275268394261404,2.48781953953157,0.09030269918531912
0.004886021022013034,2.4863944764576194,0.11764335552611753
0.005496773649764663,2.484787895559982,0.1484601539181378
0.006107526277516292,2.483002879513682,0.18269150662104724
0.006718278905267922,2.48104281610371,0.22026965734085133
0.00732903153301955,2.4789113805548206,0.2611210134776518
0.00793978416077118,2.4766125167436295,0.30516650020158176
0.008550536788522809,2.474150417479597,0.35232193303011544
0.009161289416274438,2.4715295040442666,0.4024984055209596
0.009772042044026067,2.4687544051779806,0.45560268868565085
0.010382794671777697,2.4658299357003393,0.5115376387671428
0.010993547299529326,2.462761074945461,0.5702026101067416
0.011604299927280955,2.4595529451853366,0.6314938699471943
0.012215052555032585,2.456210790205093,0.6953050121748022
0.012825805182784214,2.4527399541827504,0.7615273671887011
0.013436557810535843,2.4491458610135854,0.8300504052952085
0.014047310438287471,2.4454339942056174,0.9007621312526506
0.0146580630660391,2.4416098774586867,0.9735494678334788
0.015268815693790731,2.437679056024904,1.0482986265192595
0.01587956832154236,2.4336470789337197,1.1248954636966395
0.01649032094929399,2.42951948215026,1.2032258209732616
0.017101073577045618,2.4253017727215815,1.2831758484790696
0.01771182620479725,2.4209994139518307,1.3646323102557556
0.018322578832548876,2.4166178116345605,1.4474828710638572
0.018933331460300507,2.4121623013585034,1.53161636415
0.019544084088052135,2.407638136891991,1.6169230397142007
0.020154836715803762,2.403050479641332,1.7032947939987233
0.020765589343555393,2.3984043891694165,1.79062537908351
0.02137634197130702,2.39370481475298,1.8788105936194628
0.021987094599058652,2.3889565879501227,1.9677484548592552
0.02259784722681028,2.384164416143842,2.0573393524561494
0.02320859985456191,2.37933287702258,2.147486184595539
0.023819352482313542,2.374466413954876,2.2380944771018054
0.02443010511006517,2.3695693322122278,2.329072486225812
0.025040857737816797,2.364645795992048,2.4203312858672463
0.025651610365568428,2.3596998261911915,2.511784840021802
0.026262362993320056,2.354735298879668,2.6033500612671214
0.026873115621071687,2.3497559444239795,2.694946856115092
0.027483868248823314,2.3447653472098255,2.786498158062577
0.028094620876574942,2.339766945914599,2.877929949168225
0.028705373504326573,2.3347640342813025,2.969171270972989
0.0293161261320782,2.329759762346858,3.0601542255643426
0.029926878759829835,2.324757138079504,3.15081396756344
0.030537631387581463,2.319759029381866,3.2410886877877676
0.03114838401533309,2.3147681664182804,3.3309195893141212
0.03175913664308472,2.3097871442271303,3.420250856634525
0.03236988927083635,2.3048184255811464,3.5090296185655934
0.03298064189858798,2.2998643440608997,3.597205905537208
0.03359139452633961,2.294927107308943,3.684732601852222
0.034202147154091235,2.2900088004343164,3.771565393473706
0.03481289978184286,2.2851113895393733,3.8576627118622224
0.0354236524095945,2.2802367253429905,3.9429856743514247
0.036034405037346125,2.275386546876339,4.027498021516816
0.03664515766509775,2.2705624852294433,4.1111660519614865
0.03725591029284938,2.2657660673285838,4.193958554910208
0.037866662920601014,2.2609987197266004,4.2758467409758225
0.038477415548352635,2.256261772389702,4.3568041714314365
0.03908816817610427,2.2515564624662026,4.436806686297238
0.039698920803855904,2.2468839380240833,4.5158323315250755
0.040309673431607525,2.2422452617456763,4.593861285539277
0.04092042605935916,2.237641414569275,4.670875785372382
0.04153117868711079,2.233073299268569,4.746860052611543
0.04214193131486242,2.2285417439621016,4.821800219353601
0.04275268394261404,2.224047505545966,4.895684254348996
0.04336343657036568,2.2195912730439993,4.968501889497559
0.043974189198117304,2.215173670870611,5.04024454684468
0.04458494182586893,2.210795262002289,5.110905266212137
0.04519569445362056,2.2064565510545453,5.180478633585206
0.045806447081372194,2.2021579872618324,5.248960710365575
0.04641719970912382,2.1978999673585355,5.316348963588952
0.04702795233687545,2.193682838359807,5.382642197196216
0.047638704964627084,2.189506900241493,5.447840484438322
0.048249457592378704,2.185372408518897,5.511945101485814
0.04886021022013034,2.181279576724568,5.57495846230752
0.049470962847881966,2.177228578785663,5.636884054874717
0.050081715475633594,2.1732195513018153,5.697726378741537
0.05069246810338522,2.169252595724727,5.757490884046312
0.051303220731136856,2.1653277804409603,5.816183911972283
0.05191397335888848,2.16144514275969,5.873812636702609
0.05252472598664011,2.157604690807352,5.930385008898778
0.053135478614391746,2.1538064053313026,5.985909700727174
0.05374623124214337,2.150050241414802,6.040396052455977
0.054356983869895,2.1463361301056954,6.093854020638539
0.05496773649764663,2.1426639799613563,6.146294127898418
0.05557848912539826,2.1390336785124924,6.197727414325795
0.056189241753149884,2.135445093648503,6.248165390493357
0.05679999438090152,2.1318980749271237,6.29761999209604
0.057410747008653146,2.128392454811155,6.346103536216478
0.05802149963640477,2.124928049835082,6.393628679215735
0.0586322522641564,2.1215046617043742,6.440208376245251
0.059243004891908035,2.118122078330328,6.4858558423753365
0.05985375751965967,2.114780074803229,6.5305845153311735
0.06046451014741129,2.111478414306616,6.574408019826845
0.061075262775162925,2.1082168489754327,6.617340133484729
0.06168601540291455,2.104995120700748,6.659394754326037
0.06229676803066618,2.1018129618837436,6.700585869816138
0.0629075206584178,2.0986700961415763,6.740927527446582
0.06351827328616944,2.095566238967688,6.780433806833866
0.06412902591392107,2.092501098349043,6.819118793313638
0.0647397785416727,2.089474375342756,6.856996553006529
0.06535053116942433,2.086485764614449,6.894081109331221
0.06596128379717596,2.0835349549406272,6.930386420939122
0.0665720364249276,2.0806216296773172,6.965926361041758
0.06718278905267921,2.0777454671970483,7.000714698103586
0.06779354168043085,2.0749061412962844,7.034765077869007
0.06840429430818247,2.0721033215752396,7.068091006693097
0.06901504693593409,2.0693366737919905,7.100705836144082
0.06962579956368573,2.0666058601926798,7.132622748843604
0.07023655219143736,2.0639105398195485,7.1638547455119586
0.070847304819189,2.0612503687984334,7.194414633183063
0.07145805744694061,2.058625000607278,7.224315014553596
0.07206881007469225,2.0560340863271738,7.25356827843139
0.07267956270244387,2.053477274877294,7.282186591245194
0.0732903153301955,2.0509542132350673,7.310181889580578
0.07390106795794714,2.048464546642833,7.337565873703657
0.07451182058569876,2.0460079188021454,7.364350002035962
0.0751225732134504,2.0435839720568385,7.390545486542721
0.07573332584120203,2.0411923475658584,7.416163288996513
0.07634407846895366,2.0388326854668533,7.441214118079788
0.07695483109670527,2.0365046250313883,7.465708427287232
0.0775655837244569,2.034207804812632,7.4896564135918675
0.07817633635220854,2.0319418627862755,7.513068016836981
0.07878708897996017,2.029706436485395,7.535952919816692
0.07939784160771181,2.0275011631299176,7.558320549009569
0.08000859423546343,2.025325679751276,7.580180075927867
0.08061934686321505,2.0231796233128048,7.601540419046764
0.08123009949096668,2.0210626308263917,7.622410246279556
0.08184085211871832,2.0189743394658053,7.6427979779619335
0.08245160474646994,2.0169143866771257,7.662711790312587
0.08306235737422157,2.014882410286646,7.682159619336053
0.08367311000197321,2.012878048606556,7.7011491651347574
0.08428386262972484,2.0109009405387015,7.71968789659788
0.08489461525747646,2.008950725676675,7.7377830564357115
0.08550536788522808,2.007027044406455,7.755441666528227
0.08611612051297972,2.005129538005776,7.772670533558126
0.08672687314073135,2.003257848742403,7.789476254898987
0.08733762576848299,2.00141161997142,7.805865224729388
0.08794837839623461,1.9995904962316675,7.821843640346247
0.08855913102398623,1.997794123341387,7.837417508649883
0.08916988365173786,1.9960221484931413,7.852592652774305
0.0897806362794895,1.994274220348071,7.867374718839023
0.09039138890724112,1.9925499891294682,7.881769182795869
0.09100214153499275,1.9908491067157255,7.89578135734976
0.09161289416274439,1.9891712267325987,7.9094163989286885
0.09222364679049602,1.9875160046447955,7.922679314682405
0.09283439941824764,1.9858830978468378,7.935574969488885
0.09344515204599926,1.9842721657531401,7.948108092947716
0.0940559046737509,1.9826828698872683,7.960283286342907
0.09466665730150253,1.981114873970274,7.972105029555175
0.09527740992925417,1.9795678440080642,7.983577687907883
0.09588816255700579,1.9780414483776827,7.994705518928807
0.09649891518475741,1.976535357912446,8.00549267901395
0.09710966781250904,1.975049245985805,8.015943229977
0.09772042044026068,1.9735827885938475,8.026061145471386
0.09833117306801231,1.9721356644363355,8.035850317272958
0.09894192569576393,1.9707075549961535,8.045314561409304
0.09955267832351557,1.9692981446170654,8.054457624126185
0.10016343095126719,1.9679071205796703,8.063283187680236
0.10077418357901882,1.9665341731754356,8.071794875948825
0.10138493620677044,1.965178995778684,8.079996259847332
0.10199568883452208,1.9638412849164484,8.087890862548008
0.10260644146227371,1.9625207403360485,8.095482164492367
0.10321719409002535,1.9612170650703016,8.102773608190635
0.10382794671777695,1.959929965500248,8.109768602804548
0.10443869934552859,1.9586591514152853,8.116470528507802
0.10504945197328022,1.9574043360706208,8.122882740621204
0.10566020460103186,1.9561652362419237,8.129008573519531
0.10627095722878349,1.954941572277098,8.134851344308045
0.10688170985653511,1.953733068145096,8.140414356267838
0.10749246248428675,1.9525394514816585,8.145700902068803
0.10810321511203837,1.9513604536319362,8.150714266751429
0.10871396773979,1.9501958096899088,8.155457730477288
0.10932472036754162,1.949045258534533,8.159934571051252
0.10993547299529326,1.947908542862567,8.164148066216093
0.11054622562304489,1.9467854092180303,8.168101495724454
0.11115697825079653,1.945675608018237,8.171798143190125
0.11176773087854816,1.9445788935763886,8.175241297723879
0.11237848350629977,1.9434950241206888,8.178434255358312
0.1129892361340514,1.9424237618099642,8.18138032026755
0.11359998876180304,1.9413648727457842,8.184082805786892
0.11421074138955467,1.9403181269810779,8.186545035239625
0.11482149401730629,1.9392832985252564,8.18877034257778
0.11543224664505793,1.938260165345859,8.190762072843727
0.11604299927280955,1.937248509366743,8.19252358246046
0.11665375190056118,1.9362481164628569,8.194058239359057
0.1172645045283128,1.935258776451646,8.195369422951364
0.11787525715606444,1.934280283081114,8.196460523956008
0.11848600978381607,1.9333124340146468,8.197334944088114
0.1190967624115677,1.9323550308126216,8.197996095620924
0.11970751503931934,1.931407878910897,8.198447400827567
0.12031826766707095,1.930470787596277,8.198692291315162
0.12092902029482258,1.9295435699790189,8.198734207257962
0.12153977292257422,1.928626042962501,8.198576596540892
0.12215052555032585,1.9277180272101444,8.198222913822235
0.12276127817807747,1.9268193471097053,8.197676619525419
0.1233720308058291,1.9259298307350587,8.196941178769254
0.12398278343358073,1.9250493098055852,8.196020060245756
0.12459353606133236,1.9241776196433016,8.19491673505546
0.125204288689084,1.9233145991278628,8.193634675508417
0.1258150413168356,1.92246009064957,8.192177353900819
0.12642579394458725,1.9216139400605308,8.190548241274593
0.12703654657233887,1.9207759966241125,8.188750806169589
0.12764729920009052,1.919946112962833,8.18678851337548
0.12825805182784214,1.9191241450048422,8.184664822691277
0.12886880445559376,1.9183099519291442,8.182383187700465
0.1294795570833454,1.9175033961097,8.179947054567476
0.13009030971109703,1.916704343058586,8.177359860863506
0.13070106233884865,1.9159126613683282,8.174625034426425
0.13131181496660027,1.9151282226535935,8.171745992261727
0.13192256759435192,1.9143509014923625,8.168726139488252
0.13253332022210354,1.9135805753667492,8.165568868335344
0.1331440728498552,1.9128171246035992,8.16227755719357
0.13375482547760678,1.9120604323150256,8.158855569724933
0.13436557810535843,1.9113103843390007,8.155306254033599
0.13497633073311005,1.9105668691801572,8.151632941901731
0.1355870833608617,1.909829777950924,8.147838948091758
0.13619783598861332,1.909099004313121,8.143927569716965
0.13680858861636494,1.908374444420137,8.13990208568145
0.13741934124411656,1.907655996859811,8.135765756190601
0.13803009387186818,1.9069435625981221,8.131521822331768
0.13864084649961983,1.9062370449237982,8.12717350572581
0.13925159912737145,1.9055363493939375,8.122724008246625
0.1398623517551231,1.9048413837807416,8.118176511810521
0.14047310438287472,1.90415205801944,8.113534178231205
0.14108385701062634,1.9034682841574868,8.108800149139332
0.141694609638378,1.9027899763051042,8.10397754596404
0.1423053622661296,1.9021170505872322,8.099069469973527
0.14291611489388123,1.901449425096948,8.094079002371195
0.14352686752163288,1.9007870198503964,8.089009204443943
0.1441376201493845,1.9001297567432838,8.083863117758225
0.14474837277713615,1.8994775595089617,8.07864376440052
0.14535912540488774,1.898830353678131,8.073354147255824
0.14596987803263936,1.8981880665401918,8.067997250321872
0.146580630660391,1.8975506271062421,8.062576039051459
0.14719138328814263,1.896917966073735,8.057093460719349
0.14780213591589428,1.8962900157927982,8.051552444807472
0.1484128885436459,1.8956667102341973,8.045955903403373
0.14902364117139752,1.895047984958936,8.04030673160572
0.14963439379914917,1.8944337770894621,8.034607807930735
0.1502451464269008,1.8938240252824634,8.028861994715573
0.15085589905465244,1.893218669703204,8.023072138509548
0.15146665168240406,1.8926176520013718,8.017241070450606
0.15207740431015568,1.8920209152883818,8.011371606618916
0.15268815693790733,1.8914284041160927,8.00546654836284
0.15329890956565892,1.8908400644568653,7.9995286825908885
0.15390966219341054,1.8902558436849204,7.993560782024559
0.1545204148211622,1.889675690558907,7.987565605406239
0.1551311674489138,1.8890995552056264,7.981545897656899
0.15574192007666546,1.888527389104833,7.975504389978365
0.15635267270441708,1.8879591450750237,7.969443799895213
0.1569634253321687,1.8873947772601525,7.963366831231653
0.15757417795992035,1.8868342411171646,7.957276174018868
0.15818493058767197,1.8862774934042794,7.951174504328332
0.15879568321542362,1.885724492169923,7.94506448402768
0.15940643584317524,1.8851751967422248,7.93894876045568
0.16001718847092686,1.8846295677189748,7.932829966011656
0.1606279410986785,1.8840875669579682,7.926710717658814
0.1612386937264301,1.8835491575676142,7.9205936163365
0.16184944635418172,1.8830143038977412,7.9144812462812135
0.16246019898193337,1.8824829715304852,7.908376174253385
0.163070951609685,1.8819551272711754,7.902280948669081
0.16368170423743664,1.881430739139115,7.896198098635809
0.16429245686518826,1.88090977635818,7.890130132891638
0.16490320949293988,1.8803922093471201,7.884079538647796
0.16551396212069153,1.8798780097094963,7.878048780335068
0.16612471474844315,1.8793671502231548,7.8720402982550555
0.1667354673761948,1.878859604829151,7.866056507137466
0.16734622000394642,1.878355348620045,7.860099794604697
0.16795697263169804,1.8778543578274915,7.854172519547118
0.16856772525944969,1.8773566098090424,7.8482770104108734
0.16917847788720128,1.8768620830340939,7.842415563401179
0.16978923051495293,1.876370757068906,7.836590440605313
0.17039998314270455,1.8758826125606354,7.8308038680392
0.17101073577045617,1.8753976312203187,7.825058033621688
0.17162148839820782,1.874915795804749,7.819355085081772
0.17223224102595944,1.8744370900972014,7.813697127803804
0.17284299365371106,1.8739614988869593,7.80808622261676
0.1734537462814627,1.873489007947601,7.8025243835333615
0.17406449890921433,1.873019604014014,7.79701357544516
0.17467525153696598,1.8725532747581126,7.791555711781513
0.1752860041647176,1.8720900087632268,7.786152652138273
0.17589675679246922,1.8716297954971584,7.780806199884834
0.17650750942022086,1.8711726252838825,7.77551809975628
0.17711826204797246,1.8707184892738995,7.770290035439107
0.1777290146757241,1.8702673794132327,7.765123627159223
0.17833976730347573,1.8698192884110865,7.760020429279786
0.17895051993122735,1.8693742097061705,7.7549819279180054
0.179561272558979,1.868932137431726,7.750009538590126
0.18017202518673062,1.8684930663792614,7.745104603892605
0.18078277781448224,1.8680569919610504,7.74026839122968
0.18139353044223389,1.8676239101714183,7.735502090595065
0.1820042830699855,1.8671938175468696,7.730806812418161
0.18261503569773715,1.8667667111251058,7.72618358548372
0.18322578832548878,1.8663425884029914,7.721633354932716
0.1838365409532404,1.8659214472935342,7.717156980356166
0.18444729358099204,1.865503286081943,7.71275523398766
0.18505804620874364,1.8650881033808415,7.7084287990061275
0.18566879883649529,1.8646758980847176,7.704178267955694
0.1862795514642469,1.8642666693236865,7.7000041412923
0.18689030409199853,1.863860416416667,7.695906826064141
0.18750105671975018,1.8634571388240517,7.691886634735318
0.1881118093475018,1.8630568360999764,7.687943784158284
0.18872256197525342,1.8626595078442878,7.6840783947048354
0.18933331460300507,1.862265153654311,7.680290489560615
0.18994406723075669,1.8618737730765245,7.676579994190554
0.19055481985850833,1.8614853655582586,7.672946735981126
0.19116557248625995,1.8610999303995188,7.66939044406558
0.19177632511401158,1.860717466705055,7.665910749336011
0.19238707774176322,1.8603379733367942,7.662507184649231
0.19299783036951482,1.8599614488667437,7.659179185227508
0.19360858299726647,1.8595878915304949,7.655926089260891
0.19421933562501809,1.859217299181435,7.652747138712007
0.1948300882527697,1.8588496692457872,7.649641480326442
0.19544084088052135,1.8584849986785996,7.646608166850583
0.19605159350827298,1.8581232839207984,7.643646158458632
0.19666234613602462,1.8577645208574123,7.640754324387887
0.19727309876377624,1.857408704777095,7.6379314447841224
0.19788385139152787,1.8570558303330456,7.635176212754739
0.1984946040192795,1.8567058915054333,7.63248723662918
0.19910535664703113,1.8563588815654524,7.6298630424250335
0.19971610927478275,1.856014793041076,7.627302076515387
0.20032686190253438,1.8556736176846413,7.624802708496079
0.200937614530286,1.855335346442335,7.622363234248207
0.20154836715803764,1.8549999694256858,7.619981879190667
0.20215911978578927,1.8546674758851358,7.617656801717904
0.20276987241354089,1.8543378541857845,7.615386096817838
0.20338062504129253,1.854011091785368,7.613167799861815
0.20399137766904415,1.8536871752145534,7.610999890561178
0.2046021302967958,1.8533660900596027,7.608880297081591
0.20521288292454742,1.8530478209474708,7.60680690030796
0.20582363555229904,1.8527323515333851,7.604777538250522
0.2064343881800507,1.8524196644909554,7.60279001058273
0.2070451408078023,1.8521097415048442,7.600842083302484
0.2076558934355539,1.8518025632660415,7.59893149350513
0.20826664606330555,1.8514981094697542,7.597055954258125
0.20887739869105718,1.8511963588159426,7.595213159567237
0.20948815131880882,1.850897289012501,7.59340078942144
0.21009890394656044,1.8506008767810977,7.591616514906176
0.21070965657431207,1.8503070978656644,7.589858003372579
0.2113204092020637,1.8500159270435241,7.588122923650213
0.21193116182981533,1.8497273381391428,7.5864089512910065
0.21254191445756698,1.8494413040404836,7.58471377383224
0.2131526670853186,1.8491577967179214,7.583035096064883
0.21376341971307022,1.8488767872456928,7.581370645295795
0.21437417234082187,1.848598245825827,7.579718176589086
0.2149849249685735,1.8483221418145106,7.578075477974871
