frequency,refractiveIndex,absorption
0.0006107526277516292,2.156729759558121,0.0008152805513851883
0.0012215052555032584,2.156648801039351,0.003259445271932577
0.0018322578832548875,2.1565140267060112,0.007327469913229987
0.002443010511006517,2.156325670479618,0.013011002521679442
0.003053763138758146,2.1560840581076186,0.02029839596286956
0.003664515766509775,2.155789605439563,0.02917475312544249
0.004275268394261404,2.155442816237416,0.039621984479371465
0.004886021022013034,2.1550442795394282,0.05161887757808855
0.005496773649764663,2.1545946666009064,0.0651411780134899
0.006107526277516292,2.1540947274385163,0.08016168125896814
0.006718278905267922,2.1535452870080065,0.09665033476846313
0.00732903153301955,2.1529472410479227,0.11457434964039812
0.00793978416077118,2.152301551624166,0.1338983211043165
0.008550536788522809,2.1516092424121567,0.1545843570457904
0.009161289416274438,2.1508713937548327,0.17659221375177636
0.009772042044026067,2.150089137535595,0.1998794380340841
0.010382794671777697,2.149263651906017,0.22440151487335638
0.010993547299529326,2.1483961559080447,0.2501120197187497
0.011604299927280955,2.1474879040302572,0.27696277458049745
0.012215052555032585,2.146540180737001,0.3049040070616581
0.012825805182784214,2.1455542950080915,0.3338845114921719
0.013436557810535843,2.1445315749254217,0.3638518113520565
0.014047310438287471,2.1434733623410995,0.3947523221997187
0.0146580630660391,2.1423810076597,0.42653151435643333
0.015268815693790731,2.1412558647651068,0.459134074637039
0.01587956832154236,2.1400992861199573,0.4925040664598933
0.01649032094929399,2.138912618063202,0.5265850877148995
0.017101073577045618,2.1376971963286384,0.5613204258163744
0.01771182620479725,2.1364543418045976,0.5966532094168049
0.018322578832548876,2.1351853565521353,0.6325265563074701
0.018933331460300507,2.1338915200964457,0.6688837170820823
0.019544084088052135,2.1325740860033795,0.7056682141889276
0.020154836715803762,2.131234278750341,0.7428239760453162
0.020765589343555393,2.1298732908982316,0.7802954659352095
0.02137634197130702,2.128492280568649,0.8180278054555123
0.021987094599058652,2.1270923692280728,0.8559668923191217
0.02259784722681028,2.1256746397786923,0.8940595123631827
0.02320859985456191,2.1242401349532605,0.9322534456478824
0.023819352482313542,2.1227898560095393,0.9704975665658516
0.02443010511006517,2.1213247617180273,1.0087419379136031
0.025040857737816797,2.1198457676350997,1.04693789890512
0.025651610365568428,2.1183537456521404,1.0850381471328145
0.026262362993320056,2.1168495238100946,1.1229968145045994
0.026873115621071687,2.1153338863674933,1.1607695372044962
0.027483868248823314,2.1138075741092974,1.1983135197425876
0.028094620876574942,2.1122712848828114,1.2355875931739801
0.028705373504326573,2.1107256743464076,1.2725522675792817
0.0293161261320782,2.1091713569162303,1.3091697789090293
0.029926878759829835,2.10760890689548,1.345404130303027
0.030537631387581463,2.106038859770852,1.3812211280018865
0.03114838401533309,2.1044617136602595,1.4165884119732346
0.03175913664308472,2.1028779308961076,1.4514754813787845
0.03236988927083635,2.101287939728272,1.4858537150107172
0.03298064189858798,2.0996921361311958,1.5196963868281446
0.03359139452633961,2.0980908856995915,1.5529786767244922
0.034202147154091235,2.0964845256176323,1.5856776766578524
0.03481289978184286,2.09487336668683,1.617772392275784
0.0354236524095945,2.0932576953981736,1.6492437401656972
0.036034405037346125,2.0916377760346845,1.6800745408620918
0.03664515766509775,2.0900138527909293,1.7102495077406086
0.03725591029284938,2.0883861518967417,1.7397552319295089
0.037866662920601014,2.086754883732855,1.7685801633678548
0.038477415548352635,2.0851202449269484,1.796714588140842
0.03908816817610427,2.0834824204190934,1.8241506022218414
0.039698920803855904,2.0818415854864374,1.8508820817526401
0.040309673431607525,2.080197907717513,1.8769046499926982
0.04092042605935916,2.0785515489274036,1.902215641071421
0.04153117868711079,2.076902667005609,1.9268140606770385
0.04214193131486242,2.0752514176892367,1.9507005438191742
0.04275268394261404,2.073597956254861,1.9738773098035982
0.04336343657036568,2.0719424391231294,1.9963481145603066
0.043974189198117304,2.0702850253708722,2.018118200468786
0.04458494182586893,2.068625878146189,2.039194243826673
0.04519569445362056,2.066965165982774,2.0595843001121366
0.045806447081372194,2.065303064010269,2.0792977471917102
0.04641719970912382,2.063639755058236,2.098345226629468
0.04702795233687545,2.061975430651933,2.116738583255824
0.047638704964627084,2.0603102918986784,2.1344908031572447
0.048249457592378704,2.058644550264275,2.1516159502503203
0.04886021022013034,2.056978428239457,2.168129101606536
0.049470962847881966,2.0553121598969217,2.1840462816956983
0.050081715475633594,2.053645991340044,2.199384395717804
0.05069246810338522,2.051980181044829,2.2141611621946287
0.051303220731136856,2.050315000097139,2.2283950449922068
0.05191397335888848,2.048650732327703,2.2421051849476576
0.05252472598664011,2.0469876743477378,2.2553113312714625
0.053135478614391746,2.0453261354884567,2.26803377289688
0.05374623124214337,2.043666437648045,2.280293269947373
0.054356983869895,2.042008915049955,2.2921109854895225
0.05496773649764663,2.0403539139167104,2.3035084177385428
0.05557848912539826,2.03870179206357,2.3145073328788897
0.056189241753149884,2.037052918416675,2.3251296986606285
0.05679999438090152,2.035407672460392,2.3353976189263266
0.057410747008653146,2.0337664436187923,2.345333269220894
0.05802149963640477,2.032129630576263,2.3549588336302287
0.0586322522641564,2.0304976405422903,2.364296442989288
0.059243004891908035,2.0288708884656095,2.3733681145951935
0.05985375751965967,2.0272497962028275,2.382195693553543
0.06046451014741129,2.0256347916466817,2.3908007958800357
0.061075262775162925,2.024026307819053,2.3992047534725143
0.06168601540291455,2.022424781933787,2.4074285610611033
0.06229676803066618,2.020830654434339,2.4154928252362184
0.0629075206584178,2.019244368011098,2.4234177156477217
0.06351827328616944,2.017666366603211,2.431222918458495
0.06412902591392107,2.016097094389546,2.4389275921307956
0.0647397785416727,2.0145369947732816,2.4465503256116867
0.06535053116942433,2.0129865093645254,2.454109098979973
0.06596128379717596,2.0114460769650777,2.4616212466057736
0.0665720364249276,2.009916132559412,2.4691034228674353
0.06718278905267921,2.008397106315618,2.4765715704618985
0.06779354168043085,2.0068894226000027,2.4840408913378504
0.06840429430818247,2.0053934990087035,2.491525820270966
0.06901504693593409,2.003909745419585,2.4990400010968887
0.06962579956368573,2.002438563067407,2.5065962656053853
0.07023655219143736,2.000980343645083,2.514206615097018
0.070847304819189,1.9995354684336353,2.521882204593295
0.07145805744694061,1.9981043074632179,2.5296333296853755
0.07206881007469225,1.9966872187074556,2.5374694160025673
0.07267956270244387,1.9952845473130374,2.545399011271595
0.0732903153301955,1.9938966248663965,2.5534297799355685
0.07390106795794714,1.992523768699077,2.5615685002940176
0.07451182058569876,1.9911662812332094,2.569821064121364
0.0751225732134504,1.9898244493683395,2.5781924787151627
0.07573332584120203,1.9884985439106646,2.5866868713220095
0.07634407846895366,1.9871888190455969,2.595307495883581
0.07695483109670527,1.9858955118543817,2.6040567420425678
0.0775655837244569,1.9846188418753472,2.612936146343203
0.07817633635220854,1.9833590107102366,2.621946405557909
0.07878708897996017,1.9821162016759146,2.631087392069138
0.07939784160771181,1.9808905795016092,2.6403581712314987
0.08000859423546343,1.9796822900717297,2.64975702063688
0.08061934686321505,1.9784914602141732,2.659281451202322
0.08123009949096668,1.977318197533941,2.6689282299993744
0.08184085211871832,1.9761625902917397,2.6786934047388344
0.08245160474646994,1.9750247073271898,2.688572329826452
0.08306235737422157,1.9739045980261374,2.698559693899896
0.08367311000197321,1.9728022923314708,2.7086495487574815
0.08428386262972484,1.9717178007968128,2.7188353395883893
0.08489461525747646,1.9706511146823,2.729109936410125
0.08550536788522808,1.9696022060916634,2.7394656666211454
0.08611612051297972,1.968571028149703,2.749894348572346
0.08672687314073135,1.9675575152192202,2.7603873260634613
0.08733762576848299,1.9665615831563747,2.7709355036662418
0.08794837839623461,1.9655831296034234,2.7815293827790484
0.08855913102398623,1.9646220343176672,2.792159098313866
0.08916988365173786,1.963678159535494,2.8028144559192363
0.0897806362794895,1.9627513503702259,2.813484969640007
0.09039138890724112,1.9618414352425442,2.82415989991651
0.09100214153499275,1.9609482263421527,2.8348282918242846
0.09161289416274439,1.9600715201193255,2.8454790134571826
0.09222364679049602,1.9592110978049464,2.856100794355573
0.09283439941824764,1.9583667259575945,2.8666822638827463
0.09344515204599926,1.9575381570362187,2.877211989453347
0.0940559046737509,1.9567251299968733,2.8876785145170416
0.09466665730150253,1.9559273709120024,2.8980703962037744
0.09527740992925417,1.9551445936106882,2.908376242536451
0.09588816255700579,1.9543765003382694,2.918584749118142
0.09649891518475741,1.9536227824337098,2.92868473520386
0.09710966781250904,1.9528831210230766,2.9386651790668883
0.09772042044026068,1.9521571877274433,2.948515252572755
0.09833117306801231,1.951444645383538,2.958224354875393
0.09894192569576393,1.9507451487754315,2.967782145152275
0.09955267832351557,1.950058345375545,2.9771785742988652
0.10016343095126719,1.949383876093227,2.9864039155029083
0.10077418357901882,1.948721376029191,2.9954487936263274
0.10138493620677044,1.9480704752340134,3.0043042133196365
0.10199568883452208,1.9474307994689963,3.012961585803886
0.10260644146227371,1.9468019709675997,3.021412754252991
0.10321719409002535,1.9461836091957097,3.029650017715912
0.10382794671777695,1.945575331609015,3.0376661535230194
0.10443869934552859,1.9449767544057395,3.045454438121612
0.10504945197328022,1.9443874932730392,3.0530086662942106
0.10566020460103186,1.943807164125357,3.06032316871415
0.10627095722878349,1.9432353838330725,3.0673928278004694
0.10688170985653511,1.9426717709398071,3.0742130918368313
0.10749246248428675,1.9421159463667828,3.080779987326494
0.10810321511203837,1.94156753410264,3.0870901295577
0.10871396773979,1.9410261618772358,3.0931407313623636
0.10932472036754162,1.9404914618178855,3.0989296100531347
0.10993547299529326,1.939963071086665,3.1044551925323813
0.11054622562304489,1.9394406324973692,3.10971651856887
0.11115697825079653,1.9389237951108267,3.1147132422472854
0.11176773087854816,1.9384122148073242,3.1194456315974235
0.11237848350629977,1.937905554834939,3.123914566418305
0.1129892361340514,1.9374034863326914,3.1281215343163304
0.11359998876180304,1.9369056888274643,3.132068624983334
0.11421074138955467,1.936411850703748,3.1357585227440135
0.11482149401730629,1.9359216696453188,3.1391944974093007
0.11543224664505793,1.9354348530480776,3.1423803934763743
0.11604299927280955,1.9349511184033303,3.1453206177208877
0.11665375190056118,1.9344701936509148,3.1480201252329367
0.1172645045283128,1.9339918175016246,3.150484403950711
0.11787525715606444,1.9335157397285259,3.1527194577533875
0.11848600978381607,1.9330417214268139,3.154731788175098
0.1190967624115677,1.9325695352419705,3.15652837480994
0.11970751503931934,1.9320989655660783,3.158116654477966
0.12031826766707095,1.9316298087022263,3.1595044992273436
0.12092902029482258,1.931161872997061,3.160700193251436
0.12153977292257422,1.930694978941605,3.161712408800636
0.12215052555032585,1.9302289592405693,3.1625501811722554
0.12276127817807747,1.929763658850471,3.163222882864214
0.1233720308058291,1.9292989349869676,3.163740196979283
0.12398278343358073,1.9288346571018828,3.1641120899686612
0.12459353606133236,1.9283707068304916,3.164348783803904
0.125204288689084,1.9279069779097309,3.1644607276685717
0.1258150413168356,1.9274433760680372,3.1644585692601055
0.12642579394458725,1.926979818887627,3.164353125792361
0.12703654657233887,1.9265162356400691,3.164155354790416
0.12764729920009052,1.9260525670960982,3.163876324767651
0.12825805182784214,1.9255887653106323,3.16352718587318
0.12886880445559376,1.9251247933840643,3.1631191406002017
0.1294795570833454,1.9246606252009095,3.1626634146393124
0.13009030971109703,1.9241962451469523,3.1621712279642193
0.13070106233884865,1.923731647806068,3.1616537662298976
0.13131181496660027,1.92326683763796,3.161122152566797
0.13192256759435192,1.9228018286380268,3.160587419846922
0.13253332022210354,1.9223366439806653,3.160060483498305
0.1331440728498552,1.9218713156472886,3.1595521149399297
0.13375482547760678,1.92140588404038,3.1590729157067208
0.13436557810535843,1.9209403975848967,3.158633292329972
0.13497633073311005,1.9204749123183675,3.158243432036682
0.1355870833608617,1.9200094914710066,3.157913279325946
0.13619783598861332,1.9195442050371736,3.1576525134779194
0.13680858861636494,1.9190791293395142,3.157470527048078
0.13741934124411656,1.9186143465870813,3.1573764053920375
0.13803009387186818,1.9181499444287422,3.157378907267361
0.13864084649961983,1.917686015503153,3.157486446550064
0.13925159912737145,1.9172226569865463,3.1577070751025755
0.1398623517551231,1.916759970139587,3.158048466825699
0.14047310438287472,1.916298059854473,3.1585179029203982
0.14108385701062634,1.9158370342034796,3.159122258385495
0.141694609638378,1.9153770039900668,3.159867989769675
0.1423053622661296,1.9149180823036676,3.1607611241944378
0.14291611489388123,1.9144603840792123,3.161807249660311
0.14352686752163288,1.914004025662424,3.1630115066446396
0.1441376201493845,1.9135491243818565,3.1643785809954554
0.14474837277713615,1.913095798128626,3.165912698122961
0.14535912540488774,1.9126441649447217,3.1676176184857403
0.14596987803263936,1.9121943426207622,3.1694966343671225
0.146580630660391,1.9117464483039825,3.171552567930843
0.14719138328814263,1.9113005981172175,3.17378777054515
0.14780213591589428,1.910856906789599,3.1762041233593266
0.1484128885436459,1.9104154872996175,3.178803039114918
0.14902364117139752,1.9099764505311683,3.1815854651694764
0.14963439379914917,1.909539904943152,3.1845518877101173
0.1502451464269008,1.9091059562531438,3.1877023371302324
0.15085589905465244,1.9086747071356118,3.1910363945389606
0.15146665168240406,1.9082462569351004,3.1945531993750884
0.15207740431015568,1.9078207013947686,3.1982514580888006
0.15268815693790733,1.907398132400616,3.2021294538583684
0.15329890956565892,1.9069786377416786,3.2061850573021484
0.15390966219341054,1.9065623008864547,3.2104157381489076
0.1545204148211622,1.9061492007757486,3.2148185778226352
0.1551311674489138,1.905739411632101,3.2193902829019305
0.15574192007666546,1.905333002785932,3.224127199408685
0.15635267270441708,1.904930038518457,3.229025327879879
0.1569634253321687,1.9045305779214345,3.234080339177705
0.15757417795992035,1.9041346747737349,3.2392875909884538
0.15818493058767197,1.9037423774347062,3.2446421449625724
0.15879568321542362,1.9033537287542495,3.2501387844456757
0.15940643584317524,1.9029687659995118,3.255772032749822
0.16001718847092686,1.9025875207980494,3.261536171914686
0.1606279410986785,1.9022100190972882,3.267425261906196
0.1612386937264301,1.9018362811400729,3.273433160200156
0.16184944635418172,1.9014663214560774,3.279553541699714
0.16246019898193337,1.9011001488688015,3.2857799189315577
0.163070951609685,1.9007377665178642,3.292105662470184
0.16368170423743664,1.9003791718962648,3.298524021535162
0.16429245686518826,1.90002435690228,3.305028144709715
0.16490320949293988,1.899673307905597,3.3116111007265676
0.16551396212069153,1.899326005827305,3.3182658992695884
0.16612471474844315,1.8989824262333168,3.324985511737296
0.1667354673761948,1.8986425394407695,3.3317628919178626
0.16734622000394642,1.8983063106369449,3.3385909965230134
0.16795697263169804,1.8979737000102237,3.345462805530511
0.16856772525944969,1.897644662892562,3.3523713422853647
0.16917847788720128,1.8973191499129736,3.359309693310088
0.16978923051495293,1.8969971071614675,3.366271027775789
0.17039998314270455,1.8966784763628983,3.3732486165874525
0.17101073577045617,1.8963631950601385,3.3802358510358173
0.17162148839820782,1.8960511968060016,3.387226260973343
0.17223224102595944,1.8957424113633154,3.3942135324679636
0.17284299365371106,1.895436764912529,3.4011915248943683
0.1734537462814627,1.8951341802662376,3.408154287421682
0.17406449890921433,1.8948345770899973,3.415096074858452
0.17467525153696598,1.8945378721287918,3.4220113628178934
0.1752860041647176,1.8942439794385062,3.4288948621673314
0.17589675679246922,1.89395281062176,3.435741532729606
0.17650750942022086,1.8936642750674457,3.442546596203343
0.17711826204797246,1.8933782801933259,3.4493055482736805
0.1777290146757241,1.8930947316910203,3.4560141698858717
0.17833976730347573,1.8928135337727388,3.4626685376567536
0.17895051993122735,1.8925345894190957,3.4692650334004127
0.179561272558979,1.8922578006273707,3.4758003527495904
0.18017202518673062,1.8919830686595542,3.4822715128528468
0.18078277781448224,1.8917102942895474,3.4886758591333336
0.18139353044223389,1.8914393780488836,3.4950110710953197
0.1820042830699855,1.8911702204703489,3.501275167169423
0.18261503569773715,1.8909027223288912,3.507466508587111
0.18322578832548878,1.8906367848792125,3.513583802281183
0.1838365409532404,1.8903723100894718,3.519626102808347
0.18444729358099204,1.8901092008705116,3.525592813294983
0.18505804620874364,1.8898473613000728,3.5314836854098206
0.18566879883649529,1.8895866968414423,3.5372988183668204
0.1862795514642469,1.8893271145560357,3.543038656969594
0.18689030409199853,1.8890685233094064,3.5487039887058716
0.18750105671975018,1.8888108339702143,3.554295939907927
0.1881118093475018,1.8885539596017016,3.559815970992591
0.18872256197525342,1.8882978156452481,3.5652658708022567
0.18933331460300507,1.8880423200956074,3.570647750065947
0.18994406723075669,1.8877873936674514,3.5759640340059176
0.19055481985850833,1.8875329599528725,3.581217454114391
0.19116557248625995,1.887278945569523,3.5864110391291235
0.19177632511401158,1.8870252802991145,3.5915481052387026
0.19238707774176322,1.8867718972159975,3.5966322455493653
0.19299783036951482,1.886518732805613,3.601667318848352
0.19360858299726647,1.8862657270725967,3.6066574376994924
0.19421933562501809,1.8860128236383846,3.6116069559093535
0.1948300882527697,1.8857599698281733,3.6165204554040287
0.19544084088052135,1.8855071167471311,3.6214027325562106
0.19605159350827298,1.8852542193457928,3.6262587840069482
0.19666234613602462,1.8850012364745832,3.6310937920235236
0.19727309876377624,1.884748130927473,3.6359131094400188
0.19788385139152787,1.8844948694747763,3.6407222442239977
0.1984946040192795,1.8842414228851436,3.645526843718197
0.19910535664703113,1.8839877659368356,3.650332678601108
0.19971610927478275,1.8837338774183778,3.655145626615905
0.20032686190253438,1.8834797401187457,3.6599716561140614
0.200937614530286,1.883225340807242,3.6648168094619726
0.20154836715803764,1.882970670203259,3.669687186357352
0.20215911978578927,1.8827157229361549,3.674588927104355
0.20276987241354089,1.8824604974954764,3.6795281958919204
0.20338062504129253,1.8822049961718097,3.684511164125269
0.20399137766904415,1.881949224988547,3.6895439938531958
0.2046021302967958,1.8816931936248835,3.694632821338993
0.20521288292454742,1.8814369153303763,3.699783740817568
0.20582363555229904,1.8811804068314255,3.7050027884833296
0.2064343881800507,1.880923688230045,3.7102959267494358
0.2070451408078023,1.8806667828953054,3.7156690288211354
0.2076558934355539,1.8804097173478584,3.7211278636209117
0.20826664606330555,1.8801525211379535,3.7266780811044433
0.20887739869105718,1.879895226717373,3.732325198003695
0.20948815131880882,1.879637869305724,3.7380745840311347
0.21009890394656044,1.8793804867515291,3.7439314485789326
0.21070965657431207,1.8791231193885705,3.749900827944016
0.2113204092020637,1.8788658098879436,3.7559875731076446
0.21193116182981533,1.8786086031062836,3.762196338097351
0.21254191445756698,1.8783515459306206,3.768531568956473
