frequency,refractiveIndex,absorption
0.0006107526277516292,1.6184011508933185,-0.0001990096468450752
0.0012215052555032584,1.618417441900094,-0.000796099291798527
0.0018322578832548875,1.6184445682915518,-0.0017914507245501102
0.002443010511006517,1.6184824921783953,-0.003185365849811197
0.003053763138758146,1.6185311605965074,-0.004978265071807576
0.003664515766509775,1.6185905055877856,-0.007170685035854694
0.004275268394261404,1.6186604443040065,-0.009763275730350601
0.004886021022013034,1.6187408791336424,-0.012756796953459867
0.005496773649764663,1.6188316978515724,-0.016152114149822417
0.006107526277516292,1.6189327737915655,-0.019950193623588245
0.006718278905267922,1.619043966041499,-0.024152097135155762
0.00732903153301955,1.61916511966107,-0.028758975890167737
0.00793978416077118,1.6192960659219953,-0.03377206393030887
0.008550536788522809,1.6194366225704175,-0.0391926709367543
0.009161289416274438,1.6195865941113834,-0.045022174458291125
0.009772042044026067,1.6197457721152038,-0.051262011577409144
0.010382794671777697,1.6199139355453893,-0.05791367002889593
0.010993547299529326,1.6200908511079573,-0.06497867878708129
0.011604299927280955,1.620276273621807,-0.07245859813886946
0.012215052555032585,1.6204699464097794,-0.08035500926158004
0.012825805182784214,1.6206716017101435,-0.08866950332583451
0.013436557810535843,1.6208809611080082,-0.09740367014538145
0.014047310438287471,1.6210977359862724,-0.10655908639726847
0.0146580630660391,1.6213216279956797,-0.11613730343742935
0.015268815693790731,1.621552329543381,-0.12613983473831078
0.01587956832154236,1.6217895242994864,-0.1365681429769812
0.01649032094929399,1.6220328877210362,-0.14742362680355584
0.017101073577045618,1.6222820875926485,-0.15870760732172529
0.01771182620479725,1.6225367845832661,-0.17042131431463567
0.018322578832548876,1.622796632818117,-0.1825658722512148
0.018933331460300507,1.6230612804651912,-0.19514228610942075
0.019544084088052135,1.623330370335327,-0.2081514270548052
0.020154836715803762,1.6236035404950362,-0.22159401801396145
0.020765589343555393,1.623880424891031,-0.23547061918438666
0.02137634197130702,1.6241606539855529,-0.2497816135231574
0.021987094599058652,1.6244438554013185,-0.2645271922588064
0.02259784722681028,1.6247296545750627,-0.2797073404713593
0.02320859985456191,1.625017675418401,-0.29532182278722546
0.023819352482313542,1.625307540984878,-0.31137016923623556
0.02443010511006517,1.6255988741418719,-0.32785166131939986
0.025040857737816797,1.6258912982460307,-0.3447653183360696
0.025651610365568428,1.6261844378209105,-0.3621098840206786
0.026262362993320056,1.6264779192353367,-0.3798838135386017
0.026873115621071687,1.62677137138108,-0.3980852608919392
0.027483868248823314,1.6270644263483736,-0.41671206678501055
0.028094620876574942,1.6273567200976673,-0.4357617470001956
0.028705373504326573,1.627647893126143,-0.4552314813333906
0.0293161261320782,1.627937591127396,-0.47511810313865144
0.029926878759829835,1.6282254656426423,-0.4954180895297512
0.030537631387581463,1.6285111747018968,-0.5161275522865675
0.03114838401533309,1.6287943834534786,-0.5372422295113363
0.03175913664308472,1.6290747647802264,-0.5587574780797505
0.03236988927083635,1.6293519999007893,-0.5806682669291163
0.03298064189858798,1.6296257789544382,-0.60296917122401
0.03359139452633961,1.629895801567744,-0.6256543674377557
0.034202147154091235,1.6301617774016162,-0.6487176293852822
0.03481289978184286,1.630423426677147,-0.6721523252402731
0.0354236524095945,1.6306804806787503,-0.695951415566749
0.036034405037346125,1.630932682233181,-0.720107452391724
0.03664515766509775,1.6311797861630255,-0.7446125793423737
0.03725591029284938,1.631421559713332,-0.7694585328677153
0.037866662920601014,1.6316577829500936,-0.7946366445609538
0.038477415548352635,1.6318882491294169,-0.8201378445947153
0.03908816817610427,1.6321127650362646,-0.8459526662777013
0.039698920803855904,1.632331151291714,-0.8720712517366629
0.040309673431607525,1.6325432426277953,-0.8984833587241757
0.04092042605935916,1.632748888129118,-0.9251783685475542
0.04153117868711079,1.6329479514404965,-0.9521452951106323
0.04214193131486242,1.6331403109399616,-0.9793727950554334
0.04275268394261404,1.6333258598766438,-1.0068491789865268
0.04336343657036568,1.6335045064731066,-1.0345624237567583
0.043974189198117304,1.6336761739918766,-1.0625001857884084
0.04458494182586893,1.6338408007659335,-1.0906498154000057
0.04519569445362056,1.633998340193184,-1.118998372104793
0.045806447081372194,1.634148760694946,-1.1475326408431232
0.04641719970912382,1.6342920456386452,-1.176239149106599
0.04702795233687545,1.634428193225027,-1.2051041849098998
0.047638704964627084,1.6345572163403836,-1.2341138155593636
0.048249457592378704,1.6346791423742004,-1.2632539071694
0.04886021022013034,1.634794013003089,-1.2925101448687542
0.049470962847881966,1.6349018839416063,-1.3218680536413896
0.050081715475633594,1.6350028246609594,-1.3513130197404375
0.05069246810338522,1.6350969180765498,-1.3808303126134098
0.051303220731136856,1.6351842602054347,-1.4104051072747334
0.05191397335888848,1.6352649597949347,-1.4400225070588741
0.05252472598664011,1.6353391379236322,-1.4696675666877854
0.053135478614391746,1.6354069275761196,-1.4993253155838369
0.05374623124214337,1.635468473192946,-1.5289807813595724
0.054356983869895,1.6355239301972315,-1.5586190134150233
0.05496773649764663,1.6355734644995468,-1.5882251065728328
0.05557848912539826,1.6356172519826835,-1.6177842246818546
0.056189241753149884,1.6356554779678847,-1.647281624121202
0.05679999438090152,1.6356883366643764,-1.6767026771357076
0.057410747008653146,1.6357160306038094,-1.7060328949364632
0.05802149963640477,1.635738770061431,-1.7352579505005723
0.0586322522641564,1.635756772465748,-1.764363701005948
0.059243004891908035,1.6357702617984076,-1.7933362098390784
0.05985375751965967,1.6357794679861721,-1.8221617681151698
0.06046451014741129,1.6357846262866227,-1.8508269156528987
0.061075262775162925,1.6357859766695084,-1.8793184613475356
0.06168601540291455,1.6357837631952954,-1.907623502890339
0.06229676803066618,1.635778233392809,-1.93572944578295
0.0629075206584178,1.6357696376374704,-1.9636240216000092
0.06351827328616944,1.635758228531911,-1.9912953054549734
0.06412902591392107,1.6357442602904582,-2.018731732628235
0.0647397785416727,1.635727988129083,-2.045922114319236
0.06535053116942433,1.6357096676622966,-2.0728556524873643
0.06596128379717596,1.6356895543083974,-2.0995219537503043
0.0665720364249276,1.6356679027045236,-2.1259110423111993
0.06718278905267921,1.635644966132706,-2.1520133718899466
0.06779354168043085,1.6356209959582757,-2.177819836636298
0.06840429430818247,1.635596241081744,-2.2033217810071895
0.06901504693593409,1.6355709474052762,-2.2285110085920636
0.06962579956368573,1.6355453573147958,-2.253379789875582
0.07023655219143736,1.6355197091786922,-2.2779208689277195
0.070847304819189,1.6354942368640344,-2.3021274690162468
0.07145805744694061,1.635469169271033,-2.325993297139689
0.07206881007469225,1.635444729886675,-2.349512547478793
0.07267956270244387,1.6354211363579618,-2.372679903773136
0.0732903153301955,1.6353986000856098,-2.3954905406254823
0.07390106795794714,1.6353773258385325,-2.417940123745072
0.07451182058569876,1.6353575113897347,-2.440024809139637
0.0751225732134504,1.6353393471739264,-2.4617412412703845
0.07573332584120203,1.6353230159671976,-2.4830865501858472
0.07634407846895366,1.6353086925890765,-2.5040583476530545
0.07695483109670527,1.63529654362713,-2.524654722305941
0.0775655837244569,1.6352867271842761,-2.5448742338338004
0.07817633635220854,1.6352793926488942,-2.564715906234508
0.07878708897996017,1.6352746804877887,-2.5841792201570963
0.07939784160771181,1.6352727220619687,-2.6032641043633564
0.08000859423546343,1.6352736394651914,-2.6219709263362585
0.08061934686321505,1.6352775453851396,-2.640300482067103
0.08123009949096668,1.6352845429871223,-2.6582539850528226
0.08184085211871832,1.6352947258200148,-2.6758330545372933
0.08245160474646994,1.6353081777442748,-2.693039703031082
0.08306235737422157,1.6353249728817076,-2.709876323145578
0.08367311000197321,1.6353451755866657,-2.7263456737777045
0.08428386262972484,1.63536884043835,-2.742450865683268
0.08489461525747646,1.6353960122537838,-2.758195346477448
0.08550536788522808,1.6354267261211075,-2.7735828851002786
0.08611612051297972,1.635461007452664,-2.7886175557893593
0.08672687314073135,1.635498872057487,-2.8033037215968784
0.08733762576848299,1.6355403262326256,-2.817646017494804
0.08794837839623461,1.6355853668728118,-2.831649333108014
0.08855913102398623,1.635633981597941,-2.8453187951160923
0.08916988365173786,1.6356861488977408,-2.858659749368557
0.0897806362794895,1.6357418382931366,-2.8716777427514266
0.09039138890724112,1.6358010105135878,-2.884378504851985
0.09100214153499275,1.6358636176898984,-2.8967679294596227
0.09161289416274439,1.6359296035617723,-2.908852055948127
0.09222364679049602,1.6359989036994924,-2.920637050580117
0.09283439941824764,1.6360714457390664,-2.932129187776434
0.09344515204599926,1.6361471496301607,-2.943334831390679
0.0940559046737509,1.6362259278960904,-2.9542604160332244
0.09466665730150253,1.6363076859052272,-2.9649124284826667
0.09527740992925417,1.6363923221530654,-2.9752973892279058
0.09588816255700579,1.6364797285542314,-2.985421834179881
0.09649891518475741,1.6365697907437409,-2.9952922965923956
0.09710966781250904,1.6366623883867182,-3.00491528923191
0.09772042044026068,1.6367573954958707,-3.0142972868339615
0.09833117306801231,1.6368546807559623,-3.0234447088829195
0.09894192569576393,1.6369541078545313,-3.032363902753352
0.09955267832351557,1.6370555358180903,-3.0410611272467745
0.10016343095126719,1.6371588193530704,-3.049542536559238
0.10077418357901882,1.6372638091907443,-3.0578141647125423
0.10138493620677044,1.6373703524353447,-3.06588191048251
0.10199568883452208,1.637478292914665,-3.073751522852976
0.10260644146227371,1.637587471532369,-3.0814285870269575
0.10321719409002535,1.637697726621232,-3.088918511022997
0.10382794671777695,1.637808894296618,-3.0962265128812185
0.10443869934552859,1.637920808809413,-3.1033576085070775
0.10504945197328022,1.6380333028977097,-3.1103166001735234
0.10566020460103186,1.6381462081364944,-3.1171080657051737
0.10627095722878349,1.6382593552846527,-3.123736348362633
0.10688170985653511,1.6383725746285744,-3.1302055474470554
0.10749246248428675,1.6384856963216652,-3.1365195096390663
0.10810321511203837,1.6385985507191336,-3.1426818210868706
0.10871396773979,1.6387109687073282,-3.1486958002577525
0.10932472036754162,1.6388227820270544,-3.154564491559445
0.10993547299529326,1.638933823590216,-3.1602906597428055
0.11054622562304489,1.639043927789182,-3.1658767850908807
0.11115697825079653,1.639152930798324,-3.1713250593970717
0.11176773087854816,1.6392606708671462,-3.1766373827367618
0.11237848350629977,1.6393669886044993,-3.1818153610299142
0.1129892361340514,1.6394717272533648,-3.1868603043938504
0.11359998876180304,1.6395747329557355,-3.1917732262806955
0.11421074138955467,1.6396758550071604,-3.196554843393838
0.11482149401730629,1.639774946100503,-3.20120557637443
0.11543224664505793,1.6398718625585795,-3.2057255512471037
0.11604299927280955,1.6399664645552559,-3.2101146016130437
0.11665375190056118,1.640058616324758,-3.214372271574713
0.1172645045283128,1.6401481863588279,-3.2184978193770664
0.11787525715606444,1.6402350475915264,-3.222490221746027
0.11848600978381607,1.6403190775714431,-3.226348178905419
0.1190967624115677,1.6404001586211205,-3.2300701202477153
0.11970751503931934,1.6404781779835393,-3.233654210640497
0.12031826766707095,1.6405530279555705,-3.237098357337705
0.12092902029482258,1.6406246060082759,-3.2404002174746127
0.12153977292257422,1.6406928148940527,-3.243557206115449
0.12215052555032585,1.64075756274057,-3.2465665048267596
0.12276127817807747,1.6408187631315418,-3.2494250707463004
0.1233720308058291,1.640876335174395,-3.252129646115546
0.12398278343358073,1.6409302035549052,-3.254676768245647
0.12459353606133236,1.6409802985789403,-3.257062779882717
0.125204288689084,1.64102655620145,-3.259283839940511
0.1258150413168356,1.6410689180429003,-3.261335934565439
0.12642579394458725,1.6411073313933526,-3.2632148885013565
0.12703654657233887,1.6411417492044533,-3.264916376717607
0.12764729920009052,1.6411721300695665,-3.2664359362679893
0.12825805182784214,1.6411984381923856,-3.267768978343908
0.12886880445559376,1.6412206433443273,-3.26891080048809
0.1294795570833454,1.641238720811041,-3.269856598934552
0.13009030971109703,1.6412526513284265,-3.2706014810395985
0.13070106233884865,1.6412624210085165,-3.2711404777710387
0.13131181496660027,1.6412680212556492,-3.2714685562224397
0.13192256759435192,1.6412694486733435,-3.27158063211826
0.13253332022210354,1.641266704962308,-3.2714715822792164
0.1331440728498552,1.6412597968100435,-3.271136257016491
0.13375482547760678,1.6412487357724959,-3.27056949242329
0.13436557810535843,1.641233538148204,-3.269766122536499
0.13497633073311005,1.6412142248454864,-3.2687209913359907
0.1355870833608617,1.6411908212430577,-3.267428964560579
0.13619783598861332,1.641163357044653,-3.265884941307107
0.13680858861636494,1.6411318661280938,-3.2640838653934883
0.13741934124411656,1.6410963863893109,-3.2620207364585747
0.13803009387186818,1.6410569595818123,-3.259690620778575
0.13864084649961983,1.641013631152095,-3.257088661776594
0.13925159912737145,1.6409664500714725,-3.2542100902079385
0.1398623517551231,1.6409154686648106,-3.251050234001143
0.14047310438287472,1.6408607424366561,-3.247604527738079
0.14108385701062634,1.6408023298952061,-3.2438685217583707
0.141694609638378,1.6407402923746042,-3.2398378908724665
0.1423053622661296,1.6406746938559955,-3.2355084426722116
0.14291611489388123,1.6406056007877787,-3.230876125426969
0.14352686752163288,1.6405330819055193,-3.2259370355541424
0.1441376201493845,1.6404572080518798,-3.2206874246582684
0.14474837277713615,1.6403780519970297,-3.215123706128658
0.14535912540488774,1.6402956882598823,-3.2092424612914936
0.14596987803263936,1.6402101929305584,-3.203040445111086
0.146580630660391,1.6401216434944144,-3.1965145914379365
0.14719138328814263,1.6400301186579955,-3.189662017799985
0.14780213591589428,1.639935698177224,-3.182480029738347
0.1484128885436459,1.6398384626881495,-3.1749661246856475
0.14902364117139752,1.639738493540547,-3.167117995390865
0.14963439379914917,1.6396358726346316,-3.1589335328906962
0.1502451464269008,1.639530682261156,-3.150410829033595
0.15085589905465244,1.6394230049451408,-3.141548178559137
0.15146665168240406,1.6393129232934522,-3.1323440807391747
0.15207740431015568,1.63920051984643,-3.122797240586751
0.15268815693790733,1.6390858769337722,-3.1129065696417437
0.15329890956565892,1.6389690765348481,-3.102671186337072
0.15390966219341054,1.6388502001435856,-3.0920904159596807
0.1545204148211622,1.6387293286380782,-3.0811637902124938
0.1551311674489138,1.6386065421550544,-3.069891046387101
0.15574192007666546,1.6384819199693077,-3.058272126159415
0.15635267270441708,1.6383555403781638,-3.046307174019802
0.1569634253321687,1.6382274805910988,-3.0339965353480105
0.15757417795992035,1.6380978166245652,-3.021340754144573
0.15818493058767197,1.6379666232020607,-3.0083405704340054
0.15879568321542362,1.6378339736594867,-2.9949969173509037
0.15940643584317524,1.637699939855844,-2.9813109179207165
0.16001718847092686,1.6375645920892468,-2.9672838815519382
0.1606279410986785,1.6374279990182767,-2.952917300251062
0.1612386937264301,1.63729022758866,-2.938212844574858
0.16184944635418172,1.6371513429652451,-2.923172359334739
0.16246019898193337,1.6370114084692668,-2.907797859065332
0.163070951609685,1.6368704855208254,-2.8920915232742845
0.16368170423743664,1.6367286335865463,-2.876055691486029
0.16429245686518826,1.6365859101323954,-2.8596928580925938
0.16490320949293988,1.6364423705814939,-2.843005667028839
0.16551396212069153,1.6362980682769637,-2.8259969062835486
0.16612471474844315,1.6361530544496314,-2.808669502262884
0.1667354673761948,1.6360073781905737,-2.7910265140164725
0.16734622000394642,1.635861086428333,-2.773071127346309
0.16795697263169804,1.6357142239107771,-2.754806648805204
0.16856772525944969,1.6355668331914457,-2.736236499603793
0.16917847788720128,1.6354189546202742,-2.717364209437312
0.16978923051495293,1.635270626338614,-2.698193410244697
0.17039998314270455,1.6351218842783644,-2.678727829915608
0.17101073577045617,1.6349727621651737,-2.658971285955035
0.17162148839820782,1.6348232915254894,-2.6389276791200347
0.17223224102595944,1.6346735016974068,-2.61860098704066
0.17284299365371106,1.6345234198451142,-2.5979952578367906
0.1734537462814627,1.6343730709768551,-2.5771146037407764
0.17406449890921433,1.6342224779662191,-2.555963194741504
0.17467525153696598,1.6340716615766497,-2.5345452522561907
0.1752860041647176,1.6339206404890247,-2.512865042843136
0.17589675679246922,1.6337694313321451,-2.4909268719658684
0.17650750942022086,1.6336180487160097,-2.4687350778174877
0.17711826204797246,1.6334665052677277,-2.4462940252146317
0.1777290146757241,1.6333148116698981,-2.4236080995733507
0.17833976730347573,1.6331629767013525,-2.4006817009700834
0.17895051993122735,1.6330110072800834,-2.3775192383021206
0.179561272558979,1.6328589085082152,-2.354125123551395
0.18017202518673062,1.632706683718889,-2.330503766162041
0.18078277781448224,1.632554334524927,-2.3066595675353114
0.18139353044223389,1.6324018608690736,-2.282596915654386
0.1820042830699855,1.6322492610757653,-2.2583201798387122
0.18261503569773715,1.6320965319042116,-2.2338337056394195
0.18322578832548878,1.631943668602684,-2.2091418098782656
0.1838365409532404,1.6317906649638807,-2.1842487758365157
0.18444729358099204,1.6316375133812215,-2.159158848597097
0.18505804620874364,1.6314842049059428,-2.133876230546901
0.18566879883649529,1.631330729304875,-2.1084050770395173
0.1862795514642469,1.6311770751187664,-2.0827494922253336
0.18689030409199853,1.6310232297210374,-2.0569135250494255
0.18750105671975018,1.6308691793768388,-2.0309011654207962
0.1881118093475018,1.6307149093023106,-2.0047163405552837
0.18872256197525342,1.6305604037239068,-1.9783629114941865
0.18933331460300507,1.6304056459377023,-1.9518446697982514
0.18994406723075669,1.6302506183685568,-1.9251653344202382
0.19055481985850833,1.6300953026290477,-1.8983285487548711
0.19116557248625995,1.629939679578056,-1.8713378778672518
0.19177632511401158,1.6297837293789312,-1.8441968058993985
0.19238707774176322,1.629627431557137,-1.81690873365351
0.19299783036951482,1.6294707650572824,-1.789476976352797
0.19360858299726647,1.6293137082994744,-1.7619047615766947
0.19421933562501809,1.6291562392349028,-1.7341952273696648
0.1948300882527697,1.6289983354005861,-1.7063514205221413
0.19544084088052135,1.628839973973209,-1.6783762950211458
0.19605159350827298,1.6286811318220022,-1.6502727106665318
0.19666234613602462,1.6285217855605747,-1.622043431853402
0.19727309876377624,1.6283619115976822,-1.5936911265131601
0.19788385139152787,1.6282014861868341,-1.5652183652155247
0.1984946040192795,1.628040485474752,-1.5366276204215112
0.19910535664703113,1.6278788855485737,-1.5079212658900263
0.19971610927478275,1.6277166624818233,-1.4791015762288475
0.20032686190253438,1.6275537923790668,-1.4501707265901185
0.200937614530286,1.6273902514192693,-1.4211307925024863
0.20154836715803764,1.6272260158977834,-1.3919837498394676
0.20215911978578927,1.6270610622669932,-1.3627314749150967
0.20276987241354089,1.6268953671755597,-1.3333757447066754
0.20338062504129253,1.626728907506283,-1.303918237196593
0.20399137766904415,1.626561660412566,-1.2743605318301239
0.2046021302967958,1.6263936033534538,-1.2447041100855443
0.20521288292454742,1.6262247141272916,-1.2149503561477195
0.20582363555229904,1.6260549709039533,-1.1851005576861682
0.2064343881800507,1.6258843522556912,-1.1551559067282036
0.2070451408078023,1.6257128371865825,-1.1251175006243053
0.2076558934355539,1.625540405160605,-1.0949863431009483
0.20826664606330555,1.6253670361283485,-1.0647633453965246
