frequency,refractiveIndex,absorption
0.0006107526277516292,1.7575584669095572,0.00028373819673813616
0.0012215052555032584,1.7575740569888227,0.0011345471317174044
0.0018322578832548875,1.7575999998791603,0.0025512106157764606
0.002443010511006517,1.7576362347726455,0.00453170425459304
0.003053763138758146,1.75768267664768,0.007073199327206453
0.003664515766509775,1.7577392163785597,0.010172068210150738
0.004275268394261404,1.7578057208763818,0.013823891341345809
0.004886021022013034,1.7578820332614113,0.01802346571620265
0.005496773649764663,1.7579679730669395,0.022764814906590478
0.006107526277516292,1.7580633364746945,0.028041200591532058
0.006718278905267922,1.758167896581871,0.03384513558667258
0.00732903153301955,1.7582814036999068,0.040168398357519945
0.00793978416077118,1.7584035856850289,0.047002048999578334
0.008550536788522809,1.7585341483006445,0.05433644666634083
0.009161289416274438,1.7586727756116831,0.0621612684239918
0.009772042044026067,1.7588191304108924,0.07046552950947878
0.010382794671777697,1.7589728546771812,0.0792376049660707
0.010993547299529326,1.7591335700659565,0.08846525262836229
0.011604299927280955,1.759300878431521,0.09813563742604317
0.012215052555032585,1.759474362381476,0.10823535697304495
0.012825805182784214,1.7596535858630364,0.1187504684060887
0.013436557810535843,1.7598380947811882,0.1296665164338659
0.014047310438287471,1.7600274176485173,0.14096856255497658
0.0146580630660391,1.760221066266549,0.15264121540007314
0.015268815693790731,1.7604185364382734,0.1646686621502795
0.01587956832154236,1.7606193087116515,0.17703470098102517
0.01649032094929399,1.7608228491535802,0.18972277447703723
0.017101073577045618,1.7610286101540478,0.20271600396120562
0.01771182620479725,1.7612360312597823,0.21599722467640847
0.018322578832548876,1.7614445400368866,0.2295490217562664
0.018933331460300507,1.761653552961738,0.24335376691737054
0.019544084088052135,1.7618624763393658,0.2573936558020461
0.020154836715803762,1.7620707072484343,0.271650745897571
0.020765589343555393,1.7622776345117948,0.2861069949541776
0.02137634197130702,1.7624826396916167,0.30074429982121054
0.021987094599058652,1.762685098107799,0.3155445356173131
0.02259784722681028,1.7628843798784304,0.3304895951477414
0.02320859985456191,1.7630798509808057,0.34556142847869104
0.023819352482313542,1.7632708743315337,0.3607420825758758
0.02443010511006517,1.7634568108840316,0.37601374091192263
0.025040857737816797,1.7636370207416363,0.3913587629447554
0.025651610365568428,1.763810864284494,0.4067597233668179
0.026262362993320056,1.763977703308155,0.4221994510234232
0.026873115621071687,1.7641369021717983,0.4376610673961312
0.027483868248823314,1.7642878289538813,0.45312802454691087
0.028094620876574942,1.7644298566127972,0.46858414241632146
0.028705373504326573,1.7645623641502026,0.4840136453698996
0.0293161261320782,1.764684737774411,0.49940119788525295
0.029926878759829835,1.764796372061263,0.5147319392738635
0.030537631387581463,1.7648966711097456,0.5299915173306868
0.03114838401533309,1.764985049689599,0.5451661208074318
0.03175913664308472,1.765060934378064,0.5602425106050944
0.03236988927083635,1.765123764682836,0.5752080495848227
0.03298064189858798,1.765172994148319,0.5900507308974066
0.03359139452633961,1.7652080914422001,0.6047592047356743
0.034202147154091235,1.7652285414193114,0.6193228034166768
0.03481289978184286,1.7652338461598056,0.6337315647049295
0.0354236524095945,1.7652235259786415,0.6479762532923503
0.036034405037346125,1.7651971204033818,0.662048380355159
0.03664515766509775,1.7651541891173916,0.6759402211138201
0.03725591029284938,1.7650943128655063,0.6896448303274193
0.037866662920601014,1.7650170943193815,0.7031560556606851
0.038477415548352635,1.764922158899715,0.7164685488678025
0.03908816817610427,1.7648091555527676,0.7295777747451206
0.039698920803855904,1.7646777574785517,0.7424800178114391
0.040309673431607525,1.7645276628082813,0.7551723866825304
0.04092042605935916,1.7643585952288894,0.7676528161152695
0.04153117868711079,1.764170304552303,0.7799200667032983
0.04214193131486242,1.7639625672276762,0.7919737222167327
0.04275268394261404,1.7637351867946542,0.8038141845850956
0.04336343657036568,1.763487994276111,0.8154426665324961
0.043974189198117304,1.7632208485089986,0.8268611818826321
0.04458494182586893,1.7629336364119246,0.8380725335591879
0.04519569445362056,1.7626262731886944,0.8490802993174019
0.045806447081372194,1.7622987024668517,0.8598888152493781
0.04641719970912382,1.7619508963707338,0.870503157115488
0.04702795233687545,1.7615828555287725,0.8809291195619612
0.047638704964627084,1.761194609014874,0.8911731932933213
0.048249457592378704,1.7607862142240178,0.9012425402740247
0.04886021022013034,1.760357756682578,0.9111449670447731
0.049470962847881966,1.7599093497937843,0.9208888962416275
0.050081715475633594,1.7594411345193621,0.9304833364163061
0.05069246810338522,1.7589532789982611,0.9399378502593995
0.051303220731136856,1.7584459781038582,0.9492625213359809
0.05191397335888848,1.75791945294108,0.9584679194465288
0.05252472598664011,1.7573739502851853,0.9675650647318548
0.053135478614391746,1.7568097419640638,0.9765653906437047
0.05374623124214337,1.7562271241862104,0.9854807059074335
0.054356983869895,1.75562641681652,0.9943231556040167
0.05496773649764663,1.7550079626024349,1.0031051815030076
0.05557848912539826,1.7543721263529648,1.0118394817784446
0.056189241753149884,1.7537192940733026,1.0205389702407457
0.05679999438090152,1.7530498720578127,1.029216735218255
0.057410747008653146,1.7523642859444128,1.0378859982223723
0.05802149963640477,1.7516629797333132,1.0465600725286397
0.0586322522641564,1.7509464147732554,1.05525232180574
0.059243004891908035,1.7502150687183768,1.0639761189213943
0.05985375751965967,1.749469434458984,1.0727448050532253
0.06046451014741129,1.7487100190294156,1.0815716492288587
0.061075262775162925,1.7479373424963076,1.0904698084162914
0.06168601540291455,1.747151936830525,1.0994522882825315
0.06229676803066618,1.746354344766027,1.10853190473394
0.0629075206584178,1.7455451186488693,1.1177212463466202
0.06351827328616944,1.744724819279622,1.1270326377925464
0.06412902591392107,1.7438940147522892,1.1364781043592456
0.0647397785416727,1.7430532792928746,1.14606933765784
0.06535053116942433,1.7422031921006258,1.1558176626077237
0.06596128379717596,1.74134433619487,1.1657340057806622
0.0665720364249276,1.740477297270367,1.1758288651807676
0.06718278905267921,1.7396026625638865,1.1861122815318643
0.06779354168043085,1.7387210197347454,1.196593811137223
0.06840429430818247,1.7378329557617902,1.2072825003695304
0.06901504693593409,1.736939055859359,1.218186861845634
0.06962579956368573,1.7360399024144368,1.2293148523302322
0.07023655219143736,1.735136073947345,1.2406738524118046
0.070847304819189,1.7342281440979133,1.2522706479831898
0.07145805744694061,1.7333166806391753,1.2641114135565246
0.07206881007469225,1.7324022445203755,1.2762016974353887
0.07267956270244387,1.7314853889409756,1.2885464087606298
0.0732903153301955,1.7305666584572517,1.3011498064422335
0.07390106795794714,1.7296465881228769,1.3140154899825867
0.07451182058569876,1.7287257026648422,1.3271463921925377
0.0751225732134504,1.7278045156958426,1.3405447737952383
0.07573332584120203,1.7268835289642415,1.3542122199098345
0.07634407846895366,1.7259632316424942,1.3681496383991085
0.07695483109670527,1.7250440996548682,1.3823572600640286
0.0775655837244569,1.724126595045154,1.3968346406616095
0.07817633635220854,1.7232111653849633,1.411580664718879
0.07878708897996017,1.7222982432230411,1.4265935511112489
0.07939784160771181,1.721388245576034,1.4418708603712453
0.08000859423546343,1.720481573460901,1.457409503688
0.08061934686321505,1.7195786114691773,1.473205753554987
0.08123009949096668,1.7186797273831784,1.489255256021753
0.08184085211871832,1.7177852718340567,1.5055530444990033
0.08245160474646994,1.7168955780016888,1.5220935550677552
0.08306235737422157,1.7160109613561347,1.538870643235622
0.08367311000197321,1.7151317194404263,1.555877602085225
0.08428386262972484,1.714258131694367,1.5731071817541602
0.08489461525747646,1.7133904593188491,1.59055161018456
0.08550536788522808,1.7125289451802754,1.6082026150787243
0.08611612051297972,1.711673813754503,1.6260514469948484
0.08672687314073135,1.7108252711096676,1.644088903514415
0.08733762576848299,1.7099835049272445,1.6623053544115254
0.08794837839623461,1.7091486845606114,1.6806907677544307
0.08855913102398623,1.7083209611302752,1.6992347368641696
0.08916988365173786,1.7075004676550016,1.7179265080589037
0.0897806362794895,1.7066873192178686,1.736755009106767
0.09039138890724112,1.7058816131663757,1.7557088783123094
0.09100214153499275,1.7050834293455701,1.7747764941588815
0.09161289416274439,1.704292830363213,1.7939460054298055
0.09222364679049602,1.7035098618858808,1.8132053617294026
0.09283439941824764,1.7027345529648867,1.8325423443246103
0.09344515204599926,1.7019669163909126,1.8519445972292683
0.0940559046737509,1.7012069490761568,1.8713996584509502
0.09466665730150253,1.7004546324627496,1.890894991320767
0.09527740992925417,1.6997099329562477,1.9104180158276092
0.09588816255700579,1.698972802382878,1.9299561398777243
0.09649891518475741,1.6982431784692427,1.94949679040033
0.09710966781250904,1.69752098534318,1.9690274442234321
0.09772042044026068,1.6968061340543787,1.9885356586405674
0.09833117306801231,1.6960985231133994,2.008009101594569
0.09894192569576393,1.6953980390476748,2.027435581401099
0.09955267832351557,1.694704556973104,2.0468030759412463
0.10016343095126719,1.6940179411797789,2.066099761248285
0.10077418357901882,1.6933380457303941,2.0853140394206484
0.10138493620677044,1.6926647150698855,2.1044345657901857
0.10199568883452208,1.6919977846448269,2.123450275281502
0.10260644146227371,1.691337081531106,2.142350407896558
0.10321719409002535,1.690682425068376,2.161124533262669
0.10382794671777695,1.690033627499843,2.1797625741857205
0.10443869934552859,1.6893904946158516,2.198254829150548
0.10504945197328022,1.6887528263998284,2.216591993715154
0.10566020460103186,1.6881204176751052,2.2347651807490267
0.10627095722878349,1.6874930587511296,2.2527659394664385
0.10688170985653511,1.68687053606767,2.2705862732118343
0.10749246248428675,1.686252632835516,2.2882186559562174
0.10810321511203837,1.6856391296723239,2.3056560474676706
0.10871396773979,1.685029805232176,2.3228919071221545
0.10932472036754162,1.684424436827511,2.339920206326619
0.10993547299529326,1.683822801042074,2.3567354395266946
0.11054622562304489,1.6832246743336157,2.373332633780017
0.11115697825079653,1.6826298336250458,2.3897073568763703
0.11176773087854816,1.6820380568828184,2.405855723991055
0.11237848350629977,1.68144912368142,2.421774402865396
0.1129892361340514,1.6808628157527101,2.4374606175049913
0.11359998876180304,1.6802789175191601,2.4529121504006035
0.11421074138955467,1.6796972166098476,2.468127343270862
0.11482149401730629,1.6791175043582913,2.4831050963392425
0.11543224664505793,1.6785395762811481,2.4978448661529686
0.11604299927280955,1.6779632325369456,2.5123466619646395
0.11665375190056118,1.6773882783640153,2.5266110406941733
0.1172645045283128,1.6768145244969153,2.5406391004978492
0.11787525715606444,1.6762417875606015,2.554432472970486
0.11848600978381607,1.6756698904418297,2.567993314016006
0.1190967624115677,1.6750986626371451,2.5813242934199363
0.11970751503931934,1.6745279405770483,2.594428583164785
0.12031826766707095,1.6739575679259222,2.6073098445313985
0.12092902029482258,1.6733873958573395,2.6199722140304225
0.12153977292257422,1.6728172833045623,2.6324202882169523
0.12215052555032585,1.6722470971859702,2.644659107436448
0.12276127817807747,1.6716767126053174,2.6566941385590646
0.1233720308058291,1.6711060130267794,2.6685312567590613
0.12398278343358073,1.6705348904247892,2.680176726398963
0.12459353606133236,1.6699632454087405,2.691637181079218
0.125204288689084,1.6693909873227057,2.7029196029165665
0.1258150413168356,1.6688180343204333,2.7140313011187587
0.12642579394458725,1.66824431341581,2.7249798899158852
0.12703654657233887,1.6676697605092294,2.73577326592263
0.12764729920009052,1.6670943203902095,2.746419584993936
0.12825805182784214,1.6665179467167166,2.7569272386449155
0.12886880445559376,1.6659406019717469,2.767304830105044
0.1294795570833454,1.6653622573976985,2.7775611500734945
0.13009030971109703,1.6647828929091728,2.787705152247193
0.13070106233884865,1.664202496984833,2.7977459286878017
0.13131181496660027,1.6636210665390818,2.8076926850981065
0.13192256759435192,1.663038606774253,2.8175547160746945
0.13253332022210354,1.6624551310141094,2.8273413804016596
0.1331440728498552,1.6618706605195122,2.8370620764545134
0.13375482547760678,1.6612852242870422,2.8467262177744916
0.13436557810535843,1.6606988588314815,2.856343208877975
0.13497633073311005,1.6601116079530778,2.8659224213625403
0.1355870833608617,1.6595235224904552,2.875473170366227
0.13619783598861332,1.658934660060152,2.8850046914393412
0.13680858861636494,1.6583450847837349,2.894526117884356
0.13741934124411656,1.657754867003413,2.9040464586133905
0.13803009387186818,1.6571640829871659,2.913574576577817
0.13864084649961983,1.6565728146243275,2.923119167815955
0.13925159912737145,1.6559811491126086,2.9326887411637435
0.1398623517551231,1.6553891786375377,2.942291598673737
0.14047310438287472,1.6547970000452696,2.9519358167810967
0.14108385701062634,1.65420471450975,2.9616292282547176
0.141694609638378,1.6536124271951476,2.971379404968129
0.1423053622661296,1.6530202469145294,2.981193641523361
0.14291611489388123,1.652428285785685,2.9910789397563247
0.14352686752163288,1.6518366588850106,3.001041994150959
0.1441376201493845,1.6512454839003394,3.0110891781853666
0.14474837277713615,1.6506548807835932,3.0212265316322706
0.14535912540488774,1.6500649714040954,3.031459748830639
0.14596987803263936,1.6494758792033777,3.041794167945564
0.146580630660391,1.6488877288522676,3.0522347612288168
0.14719138328814263,1.648300645911043,3.0627861262903444
0.14780213591589428,1.647714756493372,3.0734524783876576
0.1484128885436459,1.647130186934815,3.084237643741416
0.14902364117139752,1.646547063466485,3.095145053874911
0.14963439379914917,1.645965511894624,3.1061777409826736
0.1502451464269008,1.645385657286643,3.117338334322885
0.15085589905465244,1.6448076236642706,3.128629057629329
0.15146665168240406,1.6442315337043718,3.1400517275392947
0.15207740431015568,1.6436575084479428,3.151607753023793
0.15268815693790733,1.6430856670178238,3.163298135812945
0.15329890956565892,1.6425161263455805,3.1751234718027708
0.15390966219341054,1.6419490009079993,3.1870839534261686
0.1545204148211622,1.6413844024736064,3.19917937297447
0.1551311674489138,1.6408224398595963,3.2114091268493663
0.15574192007666546,1.640263218699504,3.2237722207244697
0.15635267270441708,1.6397068412219582,3.2362672755953437
0.1569634253321687,1.6391534060407766,3.248892534694375
0.15757417795992035,1.6386030079566851,3.2616458712449314
0.15818493058767197,1.638055737770876,3.274524797028692
0.15879568321542362,1.6375116821106062,3.2875264717381194
0.15940643584317524,1.6369709232670067,3.30064771308517
0.16001718847092686,1.6364335390452462,3.31388500763545
0.1606279410986785,1.6358996026271646,3.327234522336766
0.1612386937264301,1.6353691824464565,3.3406921167090915
0.16184944635418172,1.6348423420764817,3.354253355662807
0.16246019898193337,1.6343191401307242,3.3679135229102557
0.163070951609685,1.6337996301759163,3.3816676349353285
0.16368170423743664,1.633283860657814,3.3955104554857067
0.16429245686518826,1.6327718748395843,3.409436510548848
0.16490320949293988,1.6322637107527362,3.4234401037763953
0.16551396212069153,1.6317594011605294,3.4375153323178966
0.16612471474844315,1.6312589735337175,3.451656103023585
0.1667354673761948,1.6307624500385414,3.465856148980283
0.16734622000394642,1.630269847536776,3.480109046337854
0.16795697263169804,1.6297811775976998,3.494408231387657
0.16856772525944969,1.6292964465217579,3.508747017852875
0.16917847788720128,1.6288156553757314,3.523118614349177
0.16978923051495293,1.6283388000391719,3.537516141977264
0.17039998314270455,1.6278658712618448,3.551932652004504
0.17101073577045617,1.6273968547319402,3.5663611435967044
0.17162148839820782,1.6269317311547062,3.580794581558499
0.17223224102595944,1.626470476341288,3.595225914043783
0.17284299365371106,1.6260130613073627,3.6096480901925654
0.1734537462814627,1.6255594523813057,3.624054077660039
0.17406449890921433,1.625109611321494,3.638436879992786
0.17467525153696598,1.6246634954424037,3.6527895538170263
0.1752860041647176,1.6242210577491139,3.6671052257996233
0.17589675679246922,1.6237822470798264,3.6813771093431447
0.17650750942022086,1.623347008256006,3.6955985209802376
0.17711826204797246,1.6229152822396986,3.7097628964278484
0.1777290146757241,1.6224870062976422,3.7238638062698466
0.17833976730347573,1.6220621141716955,3.7378949712307477
0.17895051993122735,1.621640536255147,3.751850277007244
0.179561272558979,1.6212221997744747,3.7657237886285775
0.18017202518673062,1.6208070289760563,3.7795097643097972
0.18078277781448224,1.6203949453173907,3.793202668772459
0.18139353044223389,1.6199858676623275,3.806797186000706
0.1820042830699855,1.6195797124798677,3.8202882314091693
0.18261503569773715,1.6191763940460013,3.8336709633935495
0.18322578832548878,1.618775824648133,3.8469407942427756
0.1838365409532404,1.6183779147915962,3.8600934003880516
0.18444729358099204,1.617982573407759,3.8731247319692335
0.18505804620874364,1.6175897080632509,3.886031021699146
0.18566879883649529,1.6171992251698037,3.898808793007855
0.1862795514642469,1.616811030194246,3.91145486745285
0.18689030409199853,1.616425027868147,3.923966371379323
0.18750105671975018,1.616041122396652,3.936340741821667
0.1881118093475018,1.6156592176660356,3.948575731632408
0.18872256197525342,1.6152792174495003,3.9606694138357277
0.18933331460300507,1.6149010256107839,3.9726201851944034
0.18994406723075669,1.6145245463051185,3.9844267689912067
0.19055481985850833,1.614149684177106,3.9960882170183436
0.19116557248625995,1.6137763445550937,4.007603910779406
0.19177632511401158,1.613404433641639,4.01897356190236
0.19238707774176322,1.6130338586996593,4.03019721177105
0.19299783036951482,1.6126645282338854,4.041275230377504
0.19360858299726647,1.6122963521672566,4.052208314407134
0.19421933562501809,1.6119292420119093,4.062997484565335
0.1948300882527697,1.6115631110344002,4.0736440821555595
0.19544084088052135,1.6111978744148832,4.084149764926267
0.19605159350827298,1.610833449399916,4.0945165022004435
0.19666234613602462,1.6104697554486243,4.104746569304256
0.19727309876377624,1.6101067143719718,4.114842541316784
0.19788385139152787,1.6097442504648845,4.124807286158476
0.1984946040192795,1.6093822906310267,4.134643957043768
0.19910535664703113,1.6090207645000125,4.144355984318481
0.19971610927478275,1.6086596045369066,4.153947066710472
0.20032686190253438,1.6082987461438254,4.163421162018019
0.200937614530286,1.6079381277535414,4.172782477263973
0.20154836715803764,1.607577690914962,4.182035458346688
0.20215911978578927,1.607217380370396,4.1911847792138515
0.20276987241354089,1.6068571441245645,4.200235330595242
0.20338062504129253,1.6064969335052746,4.209192208320843
0.20399137766904415,1.606136703215788,4.2180607012623454
0.2046021302967958,1.6057764113788335,4.226846278925992
0.20521288292454742,1.6054160195723275,4.235554578735348
0.20582363555229904,1.6050554928568157,4.244191393034538
0.2064343881800507,1.6046947997947227,4.2527626558472065
0.2070451408078023,1.604333912461487,4.261274429429477
0.2076558934355539,1.6039728064486707,4.269732890644761
0.20826664606330555,1.6036114608591916,4.2781443172026385
0.20887739869105718,1.6032498582947992,4.2865150737913025
0.20948815131880882,1.602887984835959,4.294851598140653
0.21009890394656044,1.6025258300143197,4.303160387049176
0.21070965657431207,1.6021633867779568,4.311447982409038
0.2113204092020637,1.6018006514495906,4.319720957263082
0.21193116182981533,1.601437623678003,4.327985901924755
