frequency,refractiveIndex,absorption
0.0006107526277516292,1.5352140806039627,-2.2630461686314784e-05
0.0012215052555032584,1.5352269782502583,-9.065896963837851e-05
0.0018322578832548875,1.535248451930628,-0.00020449653450981543
0.002443010511006517,1.5352784680814358,-0.0003648269810780267
0.003053763138758146,1.5353169797767172,-0.0005726051603626308
0.003664515766509775,1.535363926791245,-0.0008290544497510997
0.004275268394261404,1.5354192356817167,-0.001135663544348231
0.004886021022013034,1.535482819885873,-0.0014941825436305487
0.005496773649764663,1.535554579839725,-0.0019066183385431773
0.006107526277516292,1.535634403112745,-0.0023752293050768292
0.006718278905267922,1.5357221645610755,-0.002902519311351863
0.00732903153301955,1.5358177264987467,-0.003491231046397333
0.00793978416077118,1.5359209388868302,-0.00414433867973896
0.008550536788522809,1.5360316395405438,-0.004865039862098014
0.009161289416274438,1.5361496543542617,-0.005656747078590662
0.009772042044026067,1.536274797544318,-0.00652307836707525
0.010382794671777697,1.5364068719096275,-0.0074678474154318665
0.010993547299529326,1.536545669109953,-0.008495053052918023
0.011604299927280955,1.5366909699617766,-0.009608868151887082
0.012215052555032585,1.53684254475162,-0.010813627957719608
0.012825805182784214,1.537000153566668,-0.012113817866014133
0.013436557810535843,1.537163546642536,-0.013514060667650924
0.014047310438287471,1.5373324647279902,-0.015019103283645517
0.0146580630660391,1.5375066394663546,-0.0166338030133395
0.015268815693790731,1.5376857937933768,-0.018363113321006545
0.01587956832154236,1.5378696423512483,-0.02021206918726994
0.01649032094929399,1.5380578919184327,-0.022185772053629902
0.017101073577045618,1.5382502418549633,-0.02428937438965926
0.01771182620479725,1.5384463845627367,-0.026528063914258836
0.018322578832548876,1.5386460059603921,-0.028907047503753114
0.018933331460300507,1.5388487859722872,-0.031431534821256144
0.019544084088052135,1.539054399030942,-0.03410672170335878
0.020154836715803762,1.5392625145924559,-0.03693777334155875
0.020765589343555393,1.5394727976641347,-0.03992980729749585
0.02137634197130702,1.539684909343768,-0.0430878763923598
0.021987094599058652,1.5398985073696365,-0.04641695151233778
0.02259784722681028,1.5401132466806091,-0.049921904373246256
0.02320859985456191,1.540328779985357,-0.05360749028855715
0.023819352482313542,1.5405447583397993,-0.05747833098661552
0.02443010511006517,1.54076083173188,-0.06153889752312839
0.025040857737816797,1.5409766496725716,-0.0657934933369105
0.025651610365568428,1.5411918617921105,-0.07024623749662218
0.026262362993320056,1.541406118440286,-0.07490104818766574
0.026873115621071687,1.5416190712896944,-0.07976162648866976
0.027483868248823314,1.541830373940705,-0.08483144048690089
0.028094620876574942,1.5420396825268672,-0.09011370978309326
0.028705373504326573,1.5422466563195254,-0.09561139043493146
0.0293161261320782,1.5424509583302914,-0.10132716038929986
0.029926878759829835,1.5426522559099989,-0.10726340545222697
0.030537631387581463,1.5428502213427744,-0.11342220584557075
0.03114838401533309,1.543044532433812,-0.11980532339770562
0.03175913664308472,1.5432348730894199,-0.12641418941554763
0.03236988927083635,1.5434209338878861,-0.13324989328286235
0.03298064189858798,1.5436024126397299,-0.1403131718296104
0.03359139452633961,1.5437790149358719,-0.14760439951395385
0.034202147154091235,1.5439504546822937,-0.15512357945750319
0.03481289978184286,1.5441164546196962,-0.16287033537267293
0.0354236524095945,1.5442767468267753,-0.17084390441714478
0.036034405037346125,1.5444310732057378,-0.17904313100932728
0.03664515766509775,1.5445791859485858,-0.18746646163541855
0.03725591029284938,1.5447208479829344,-0.19611194067542428
0.037866662920601014,1.5448558333959892,-0.20497720727288588
0.038477415548352635,1.544983927835531,-0.21405949326921594
0.03908816817610427,1.5451049288865464,-0.22335562222087146
0.039698920803855904,1.545218646422594,-0.2328620095128405
0.040309673431607525,1.5453249029306315,-0.2425746635795991
0.04092042605935916,1.545423533808458,-0.2524891882394318
0.04153117868711079,1.5455143876337838,-0.2626007861455301
0.04214193131486242,1.5455973264041092,-0.27290426335207807
0.04275268394261404,1.5456722257467028,-0.2833940349901148
0.04336343657036568,1.5457389750979709,-0.2940641320445894
0.043974189198117304,1.5457974778517363,-0.3049082092179187
0.04458494182586893,1.5458476514758914,-0.3159195538643449
0.04519569445362056,1.5458894275971573,-0.32709109597224756
0.045806447081372194,1.545922752053649,-0.3384154191706674
0.04641719970912382,1.5459475849151043,-0.3498847727296454
0.04702795233687545,1.5459639004708046,-0.36149108452301826
0.047638704964627084,1.5459716871851796,-0.37322597491620885
0.048249457592378704,1.545970947621343,-0.3850807715403905
0.04886021022013034,1.54596169833284,-0.39704652490925774
0.049470962847881966,1.5459439697239703,-0.4091140248329947
0.050081715475633594,1.54591780587923,-0.4212738175803822
0.05069246810338522,1.5458832643624756,-0.43351622373725013
0.051303220731136856,1.545840415986448,-0.4458313567084485
0.05191397335888848,1.5457893445535626,-0.45820914180575734
0.05252472598664011,1.5457301465687416,-0.47063933586514334
0.053135478614391746,1.5456629309253551,-0.483111547333075
0.05374623124214337,1.5455878185652927,-0.49561525676047863
0.054356983869895,1.5455049421142162,-0.5081398376440854
0.05496773649764663,1.5454144454934025,-0.5206745775492755
0.05557848912539826,1.545316483509214,-0.5332086994537124
0.056189241753149884,1.5452112214216802,-0.5457313832461576
0.05679999438090152,1.5450988344934955,-0.5582317873174244
0.057410747008653146,1.5449795075208883,-0.5706990701795306
0.05802149963640477,1.5448534343478202,-0.5831224120500653
0.0586322522641564,1.5447208173649822,-0.5954910363392016
0.059243004891908035,1.5445818669951683,-0.6077942309781642
0.05985375751965967,1.5444368011664975,-0.620021369528836
0.06046451014741129,1.5442858447750776,-0.6321619320155263
0.061075262775162925,1.544129229138673,-0.644205525422149
0.06168601540291455,1.5439671914428812,-0.6561419037990632
0.06229676803066618,1.5437999741814552,-0.6679609879261641
0.0629075206584178,1.5436278245922035,-0.6796528844816782
0.06351827328616944,1.5434509940900656,-0.6912079046668955
0.06412902591392107,1.543269737698835,-0.7026165822405206
0.0647397785416727,1.5430843134829784,-0.7138696909191936
0.06535053116942433,1.5428949819809923,-0.7249582611024674
0.06596128379717596,1.5427020056417122,-0.7358735958830882
0.0665720364249276,1.5425056482648978,-0.7466072863078155
0.06718278905267921,1.54230617444741,-0.7571512258546732
0.06779354168043085,1.5421038490362562,-0.7674976240973466
0.06840429430818247,1.5418989365896973,-0.7776390195285305
0.06901504693593409,1.5416917008475592,-0.7875682915187112
0.06962579956368573,1.5414824042118749,-0.7972786713882861
0.07023655219143736,1.5412713072388824,-0.806763752574321
0.070847304819189,1.5410586681433651,-0.8160174998767312
0.07145805744694061,1.5408447423162435,-0.8250342577702992
0.07206881007469225,1.540629781856311,-0.8338087577724766
0.07267956270244387,1.5404140351168927,-0.8423361248595849
0.0732903153301955,1.5401977462681467,-0.8506118829265172
0.07390106795794714,1.5399811548757771,-0.8586319592871033
0.07451182058569876,1.539764495496627,-0.8663926882166243
0.0751225732134504,1.5395479972918902,-0.8738908135374636
0.07573332584120203,1.5393318836582794,-0.881123490254225
0.07634407846895366,1.5391163718777152,-0.8880882852450549
0.07695483109670527,1.5389016727858653,-0.8947831770182214
0.0775655837244569,1.5386879904598574,-0.9012065545462895
0.07817633635220854,1.5384755219255033,-0.9073572151907728
0.07878708897996017,1.5382644568841854,-0.9132343617327613
0.07939784160771181,1.5380549774596557,-0.9188375985273483
0.08000859423546343,1.5378472579648177,-0.9241669267994453
0.08061934686321505,1.5376414646885956,-0.9292227391038743
0.08123009949096668,1.537437755702961,-0.9340058129690888
0.08184085211871832,1.5372362806900421,-0.9385173037509337
0.08245160474646994,1.5370371807893275,-0.9427587367190127
0.08306235737422157,1.5368405884648413,-0.9467319984044776
0.08367311000197321,1.5366466273922172,-0.9504393272338467
0.08428386262972484,1.536455412365413,-0.9538833034809121
0.08489461525747646,1.5362670492229986,-0.9570668385635217
0.08550536788522808,1.536081634793681,-0.9599931637179522
0.08611612051297972,1.53589925686087,-0.9626658180819174
0.08672687314073135,1.5357199941459911,-0.9650886362180554
0.08733762576848299,1.5355439163101914,-0.9672657351133541
0.08794837839623461,1.5353710839741532,-0.9692015006859825
0.08855913102398623,1.5352015487556154,-0.9709005738358026
0.08916988365173786,1.5350353533241998,-0.972367836074304
0.0897806362794895,1.5348725314731735,-0.9736083947678661
0.09039138890724112,1.5347131082076613,-0.9746275680329757
0.09100214153499275,1.534557099848894,-0.9754308693184524
0.09161289416274439,1.5344045141539873,-0.9760239917120754
0.09222364679049602,1.534255350450775,-0.9764127920100559
0.09283439941824764,1.5341095997871872,-0.9766032745845211
0.09344515204599926,1.5339672450946287,-0.9766015750894261
0.0940559046737509,1.533828261364821,-0.9764139440408541
0.09466665730150253,1.5336926158395732,-0.9760467303092352
0.09527740992925417,1.5335602682128593,-0.9755063645633733
0.09588816255700579,1.5334311708446893,-0.974799342700147
0.09649891518475741,1.5333052689860656,-0.9739322093019951
0.09710966781250904,1.5331825010145579,-0.9729115411545471
0.09772042044026068,1.5330627986797356,-0.971743930864958
0.09833117306801231,1.5329460873579366,-0.9704359706144733
0.09894192569576393,1.5328322863156618,-0.968994236083322
0.09955267832351557,1.532721308980982,-0.9674252705818581
0.10016343095126719,1.532613063222287,-0.9657355694238365
0.10077418357901882,1.5325074516337525,-0.9639315645729907
0.10138493620677044,1.5324043718267661,-0.9620196096017706
0.10199568883452208,1.5323037167267832,-0.9600059649869227
0.10260644146227371,1.5322053748747857,-0.9578967837807506
0.10321719409002535,1.5321092307327873,-0.9556980976834977
0.10382794671777695,1.5320151649926401,-0.9534158035477158
0.10443869934552859,1.5319230548874883,-0.9510556503435578
0.10504945197328022,1.5318327745052018,-0.9486232266102141
0.10566020460103186,1.5317441951030846,-0.9461239484208224
0.10627095722878349,1.531657185423215,-0.9435630478836551
0.10688170985653511,1.5315716120077612,-0.94094556220338
0.10749246248428675,1.531487339513574,-0.9382763233226984
0.10810321511203837,1.5314042310254457,-0.9355599481649534
0.10871396773979,1.5313221483673753,-0.932800829495474
0.10932472036754162,1.5312409524112185,-0.9300031274175284
0.10993547299529326,1.5311605033820834,-0.9271707615187368
0.11054622562304489,1.5310806611599037,-0.924307403679281
0.11115697825079653,1.5310012855765487,-0.9214164715550426
0.11176773087854816,1.5309222367079516,-0.9185011227434182
0.11237848350629977,1.5308433751606594,-0.9155642496386643
0.1129892361340514,1.5307645623522765,-0.9126084749855287
0.11359998876180304,1.5306856607852837,-0.9096361481309774
0.11421074138955467,1.5306065343137465,-0.9066493419786376
0.11482149401730629,1.530527048402427,-0.9036498506440919
0.11543224664505793,1.5304470703778645,-0.9006391878098727
0.11604299927280955,1.530366469670949,-0.8976185857775975
0.11665375190056118,1.530285118050686,-0.894588995207729
0.1172645045283128,1.530202889848673,-0.8915510855441341
0.11787525715606444,1.5301196621739974,-0.8885052461107866
0.11848600978381607,1.5300353151182666,-0.8854515878708609
0.1190967624115677,1.5299497319503974,-0.8823899458357964
0.11970751503931934,1.5298627993009914,-0.8793198821088567
0.12031826766707095,1.5297744073360173,-0.8762406895483735
0.12092902029482258,1.5296844499196167,-0.8731513960328302
0.12153977292257422,1.529592824765892,-0.870050769307396
0.12215052555032585,1.5294994335794676,-0.8669373223955159
0.12276127817807747,1.529404182184812,-0.8638093195487825
0.1233720308058291,1.529306980644175,-0.8606647827164745
0.12398278343358073,1.5292077433641194,-0.8575014985097165
0.12459353606133236,1.5291063891906482,-0.854317025633651
0.125204288689084,1.5290028414929167,-0.8511087027641978
0.1258150413168356,1.5288970282355827,-0.84787365684175
0.12642579394458725,1.528788882039875,-0.8446088117543717
0.12703654657233887,1.528678340233484,-0.8413108973819433
0.12764729920009052,1.5285653448893772,-0.8379764589747783
0.12825805182784214,1.528449842853728,-0.8346018668353253
0.12886880445559376,1.528331785763116,-0.8311833262750045
0.1294795570833454,1.528211130051203,-0.8277168878173247
0.13009030971109703,1.528087836945126,-0.8241984576158455
0.13070106233884865,1.5279618724518336,-0.8206238080596924
0.13131181496660027,1.5278332073346592,-0.8169885885354761
0.13192256759435192,1.5277018170803909,-0.8132883363166741
0.13253332022210354,1.5275676818571702,-0.8095184875523143
0.1331440728498552,1.5274307864635253,-0.8056743883252308
0.13375482547760678,1.5272911202688901,-0.8017513057522739
0.13436557810535843,1.5271486771459255,-0.7977444390984841
0.13497633073311005,1.5270034553950633,-0.7936489308782704
0.1355870833608617,1.526855457661579,-0.7894598779182259
0.13619783598861332,1.5267046908456414,-0.785172342352966
0.13680858861636494,1.5265511660056694,-0.7807813625325486
0.13741934124411656,1.5263948982554236,-0.776281963816479
0.13803009387186818,1.5262359066552482,-0.7716691692288136
0.13864084649961983,1.526074214097825,-0.7669380099553157
0.13925159912737145,1.5259098471888708,-0.7620835356613809
0.1398623517551231,1.5257428361231946,-0.7571008246074233
0.14047310438287472,1.5255732145564935,-0.7519849935464131
0.14108385701062634,1.5254010194733123,-0.7467312073840526
0.141694609638378,1.5252262910515682,-0.7413346885835838
0.1423053622661296,1.5250490725240093,-0.7357907263024687
0.14291611489388123,1.5248694100370392,-0.7300946852434642
0.14352686752163288,1.524687352507274,-0.7242420142079371
0.1441376201493845,1.524502951476189,-0.7182282543395995
0.14474837277713615,1.524316260963278,-0.7120490470461721
0.14535912540488774,1.524127337318018,-0.7057001415904439
0.14596987803263936,1.5239362390710633,-0.6991774023404105
0.146580630660391,1.5237430267849525,-0.69247681567156
0.14719138328814263,1.5235477629046865,-0.6855944965148595
0.14780213591589428,1.5233505116084962,-0.6785266945436591
0.1484128885436459,1.5231513386590994,-0.6712697999953189
0.14902364117139752,1.5229503112557559,-0.6638203491250352
0.14963439379914917,1.5227474978873727,-0.656175029287481
0.1502451464269008,1.522542968186975,-0.6483306836455277
0.15085589905465244,1.522336792787761,-0.6402843155055534
0.15146665168240406,1.522129043180999,-0.6320330922781046
0.15207740431015568,1.5219197915759983,-0.6235743490670991
0.15268815693790733,1.5217091107623715,-0.6149055918864774
0.15329890956565892,1.5214970739747837,-0.6060245005088505
0.15390966219341054,1.5212837547603928,-0.5969289309489185
0.1545204148211622,1.5210692268491341,-0.5876169175853828
0.1551311674489138,1.520853564027041,-0.5780866749260318
0.15574192007666546,1.5206368400127435,-0.5683365990201729
0.15635267270441708,1.5204191283372623,-0.5583652685264611
0.1569634253321687,1.520200502227259,-0.5481714454399196
0.15757417795992035,1.5199810344918299,-0.5377540754863626
0.15818493058767197,1.5197607974129537,-0.5271122881911485
0.15879568321542362,1.5195398626396937,-0.5162453966290395
0.15940643584317524,1.5193183010862086,-0.5051528968649088
0.16001718847092686,1.519096182833666,-0.4938344670920536
0.1606279410986785,1.518873577036107,-0.4822899664771721
0.1612386937264301,1.518650551830294,-0.4705194337216058
0.16184944635418172,1.5184271742496134,-0.4585230853470774
0.16246019898193337,1.5182035101420233,-0.4463013137162739
0.163070951609685,1.517979624092098,-0.43385468479697453
0.16368170423743664,1.5177555793471542,-0.42118393568015977
0.16429245686518826,1.5175314377474907,-0.4082899718615962
0.16490320949293988,1.5173072596606982,-0.395173864297192
0.16551396212069153,1.5170831039200632,-0.38183684624176106
0.16612471474844315,1.5168590277670297,-0.3682803098823294
0.1667354673761948,1.516635086797698,-0.3545058027742246
0.16734622000394642,1.5164113349133042,-0.3405150240931714
0.16795697263169804,1.5161878242746996,-0.3263098207101341
0.16856772525944969,1.5159646052607199,-0.31189218310184474
0.16917847788720128,1.5157417264304378,-0.2972642411063636
0.16978923051495293,1.5155192344892365,-0.2824282595327353
0.17039998314270455,1.5152971742586356,-0.2673866336366881
0.17101073577045617,1.5150755886498244,-0.25214188447082597
0.17162148839820782,1.5148545186408144,-0.23669665411986657
0.17223224102595944,1.5146340032571672,-0.22105370083098713
0.17284299365371106,1.514414079556207,-0.2052158940482629
0.1734537462814627,1.5141947826146456,-0.18918620936098587
0.17406449890921433,1.5139761455195375,-0.17296772337711633
0.17467525153696598,1.5137581993624978,-0.1565636085271087
0.1752860041647176,1.5135409732370866,-0.13997712781216654
0.17589675679246922,1.5133244942392712,-0.12321162950198226
0.17650750942022086,1.513108787470897,-0.10627054179288817
0.17711826204797246,1.5128938760460593,-0.08915736743463595
0.1777290146757241,1.5126797811002848,-0.07187567833517806
0.17833976730347573,1.5124665218024553,-0.0544291101490977
0.17895051993122735,1.512254115369346,-0.036821356861656294
0.179561272558979,1.512042577082717,-0.019056165372810293
0.18017202518673062,1.511831920308835,-0.00113733009209072
0.18078277781448224,1.5116221565203554,0.016931312451028763
0.18139353044223389,1.5114132953204433,0.03514588897100278
0.1820042830699855,1.5112053444690645,0.05350249475982611
0.18261503569773715,1.5109983099113293,0.07199719898171923
0.18322578832548878,1.510792195807795,0.09062604992245422
0.1838365409532404,1.5105870045666516,0.10938508018779845
0.18444729358099204,1.5103827368776581,0.12827031184312193
0.18505804620874364,1.5101793917477722,0.1472777614903005
0.18566879883649529,1.509976966538349,0.16640344527355166
0.1862795514642469,1.5097754570038313,0.18564338381151932
0.18689030409199853,1.509574857331831,0.20499360704706138
0.18750105671975018,1.5093751601845007,0.22445015901314982
0.1881118093475018,1.5091763567411265,0.24400910250667016
0.18872256197525342,1.5089784367418173,0.26366652366827087
0.18933331460300507,1.508781388532232,0.2834185364618651
0.18994406723075669,1.5085851991092352,0.3032612870513471
0.19055481985850833,1.508389854167399,0.3231909580693766
0.19116557248625995,1.5081953381462672,0.34320377277503067
0.19177632511401158,1.5080016342782951,0.3632959990976853
0.19238707774176322,1.5078087246373852,0.38346395356318974
0.19299783036951482,1.507616590187918,0.4037040050990725
0.19360858299726647,1.5074252108342334,0.42401257871790476
0.19421933562501809,1.5072345654704458,0.44438615907430545
0.1948300882527697,1.5070446320305475,0.46482129389548976
0.19544084088052135,1.5068553875387047,0.485314597281816
0.19605159350827298,1.5066668081596821,0.5058627528763016
0.19666234613602462,1.506478869249333,0.5264625169028181
0.19727309876377624,1.5062915454050694,0.5471107210695778
0.19788385139152787,1.5061048105162644,0.567804275338758
0.1984946040192795,1.5059186378145064,0.5885401705606106
0.19910535664703113,1.5057329999236604,0.6093154809721525
0.19971610927478275,1.5055478689096646,0.630127366559803
0.20032686190253438,1.5053632163300084,0.6509730752852698
0.200937614530286,1.5051790132828469,0.671849945176337
0.20154836715803764,1.5049952304556806,0.6927554062807229
0.20215911978578927,1.5048118381735767,0.7136869824856914
0.20276987241354089,1.5046288064468591,0.7346422932020154
0.20338062504129253,1.5044461050182467,0.7556190549144844
0.20399137766904415,1.5042637034093749,0.776615082599402
0.2046021302967958,1.504081570966682,0.7976282910093516
0.20521288292454742,1.5038996769066084,0.8186566958284901
0.20582363555229904,1.503717990360083,0.839698414697948
0.2064343881800507,1.503536480416265,0.8607516681124967
