frequency,refractiveIndex,absorption
0.0006107526277516292,1.519212715161123,3.575088036374089e-05
0.0012215052555032584,1.5192009954351238,0.00014236247946527167
0.0018322578832548875,1.5191817954342473,0.00031794529654400184
0.002443010511006517,1.5191555952447882,0.0005594588533344017
0.003053763138758146,1.519123030498769,0.0008628633896033474
0.003664515766509775,1.519084860159952,0.00122331138288618
0.004275268394261404,1.519041930479797,0.001635361879005686
0.004886021022013034,1.5189951380439606,0.0020932003040150166
0.005496773649764663,1.5189453945382496,0.0025908481707300284
0.006107526277516292,1.518893595319305,0.0031223503292713965
0.006718278905267922,1.5188405931993774,0.0036819314292665436
0.00732903153301955,1.5187871781623827,0.004264117371233618
0.00793978416077118,1.5187340631117874,0.004863821181742694
0.008550536788522809,1.5186818752670832,0.005476395610402068
0.009161289416274438,1.5186311524974667,0.006097656685964698
0.009772042044026067,1.5185823437031505,0.006723883516078111
0.010382794671777697,1.518535812302692,0.007351799915258704
0.010993547299529326,1.518491841926454,0.007978543190656533
0.011604299927280955,1.518450643518451,0.008601624804155888
0.012215052555032585,1.5184123631822373,0.009218886834682718
0.012825805182784214,1.5183770902486227,0.009828457319471382
0.013436557810535843,1.5183448651783626,0.010428706750688039
0.014047310438287471,1.5183156870323535,0.011018207295894955
0.0146580630660391,1.5182895203409372,0.011595695724776998
0.015268815693790731,1.51826630128205,0.01216004056256989
0.01587956832154236,1.5182459431364848,0.012710213645119628
0.01649032094929399,1.5182283410301183,0.0132452660052489
0.017101073577045618,1.5182133760006475,0.013764307856999348
0.01771182620479725,1.5182009184431997,0.014266492345281465
0.018322578832548876,1.5181908309978742,0.014751002677867822
0.018933331460300507,1.5181829709451253,0.015217042239841046
0.019544084088052135,1.5181771921737353,0.015663827297572347
0.020154836715803762,1.518173346782498,0.016090581921006708
0.020765589343555393,1.5181712863715717,0.016496534783498655
0.02137634197130702,1.5181708630736066,0.016880917532696726
0.021987094599058652,1.5181719303687289,0.017242964461393236
0.02259784722681028,1.5181743437216233,0.01758191324181513
0.02320859985456191,1.5181779610734483,0.017897006518730794
0.023819352482313542,1.5181826432163674,0.018187494186132736
0.02443010511006517,1.5181882540740033,0.018452636197856066
0.025040857737816797,1.5181946609072734,0.01869170578575639
0.025651610365568428,1.5182017344616399,0.018903992978299432
0.026262362993320056,1.518209349068979,0.019088808329560523
0.026873115621071687,1.5182173827147816,0.01924548678264027
0.027483868248823314,1.5182257170793545,0.019373391604090243
0.028094620876574942,1.5182342375599551,0.01947191833526506
0.028705373504326573,1.5182428332793663,0.01954049871580055
0.0293161261320782,1.5182513970852232,0.01957860454099848
0.029926878759829835,1.5182598255434119,0.01958575142083207
0.030537631387581463,1.5182680189281055,0.019561502413182018
0.03114838401533309,1.5182758812102701,0.019505471507917035
0.03175913664308472,1.5182833200460402,0.019417326942233002
0.03236988927083635,1.518290246765847,0.019296794329536873
0.03298064189858798,1.5182965763649086,0.01914365958763717
0.03359139452633961,1.518302227495387,0.01895777165371459
0.034202147154091235,1.5183071224602958,0.018739044974452314
0.03481289978184286,1.5183111872091117,0.018487461762896132
0.0354236524095945,1.5183143513348807,0.018203074013321285
0.036034405037346125,1.5183165480725318,0.017886005267900882
0.03664515766509775,1.518317714298043,0.017536452129301456
0.03725591029284938,1.5183177905280456,0.017154685514758017
0.037866662920601014,1.51831672091943,0.016741051648125373
0.038477415548352635,1.518314453268506,0.016295972787586325
0.03908816817610427,1.5183109390092402,0.015819947686864032
0.039698920803855904,1.5183061332101337,0.015313551790140203
0.040309673431607525,1.5182999945692799,0.01477743716011683
0.04092042605935916,1.5182924854071809,0.014212332141054766
0.04153117868711079,1.518283571656917,0.013619040758518327
0.04214193131486242,1.5182732228512843,0.012998441858753823
0.04275268394261404,1.518261412106555,0.012351487992015605
0.04336343657036568,1.5182481161025352,0.011679204044012821
0.043974189198117304,1.5182333150586313,0.010982685621525188
0.04458494182586893,1.5182169927056748,0.01026309719820059
0.04519569445362056,1.5181991362532847,0.00952167002848609
0.045806447081372194,1.5181797363525804,0.008759699836976133
0.04641719970912382,1.518158787054095,0.007978544292624866
0.04702795233687545,1.5181362857607819,0.007179620276938821
0.047638704964627084,1.5181122331760266,0.006364400957176114
0.048249457592378704,1.5180866332466205,0.005534412674507847
0.04886021022013034,1.5180594931006879,0.004691231659638719
0.049470962847881966,1.518030822980579,0.0038364805873485736
0.050081715475633594,1.51800063617079,0.0029718249832237646
0.05069246810338522,1.5179689489209829,0.002098969495160774
0.051303220731136856,1.517935780364219,0.0012196540435719157
0.05191397335888848,1.5179011524305435,0.0003356498638206547
0.05252472598664011,1.5178650897560828,-0.0005512445444370075
0.053135478614391746,1.517827619587845,-0.001439207547172081
0.05374623124214337,1.5177887716844285,-0.0023263985702066553
0.054356983869895,1.5177485782128675,-0.0032109623435357644
0.05496773649764663,1.517707073641872,-0.0040910331804529495
0.05557848912539826,1.51766429463172,-0.004964739277324582
0.056189241753149884,1.517620279921079,-0.005830207019534518
0.05679999438090152,1.5175750702110622,-0.006685565278738705
0.057410747008653146,1.5175287080468092,-0.00752894968784625
0.05802149963640477,1.5174812376969196,-0.008358506879327383
0.0586322522641564,1.5174327050310432,-0.009172398673691205
0.059243004891908035,1.517383157395972,-0.009968806204729005
0.05985375751965967,1.5173326434905434,-0.010745933968919352
0.06046451014741129,1.5172812132397042,-0.011502013786664786
0.061075262775162925,1.5172289176680545,-0.012235308663643368
0.06168601540291455,1.517175808773205,-0.012944116541086771
0.06229676803066618,1.5171219393992768,-0.013626773924511624
0.0629075206584178,1.5170673631108598,-0.01428165938086311
0.06351827328616944,1.5170121340677525,-0.014907196894652952
0.06412902591392107,1.5169563069007832,-0.015501859074637572
0.0647397785416727,1.5168999365890188,-0.016064170203378022
0.06535053116942433,1.516843078338649,-0.01659270912153822
0.06596128379717596,1.516785787463822,-0.017086111941626157
0.0665720364249276,1.5167281192697024,-0.017543074584318967
0.06718278905267921,1.5166701289380027,-0.01796235513327264
0.06779354168043085,1.516611871415235,-0.0183427760030552
0.06840429430818247,1.5165534013039015,-0.018683225917822444
0.06901504693593409,1.5164947727568459,-0.01898266169656345
0.06962579956368573,1.5164360393749556,-0.019240109843859463
0.07023655219143736,1.516377254108408,-0.01945466794401601
0.070847304819189,1.5163184691616158,-0.01962550585769905
0.07145805744694061,1.5162597359020347,-0.019751866721689274
0.07206881007469225,1.5162011047729629,-0.019833067751128895
0.07267956270244387,1.516142625210459,-0.01986850084632199
0.0732903153301955,1.5160843455644804,-0.019857633005348017
0.07390106795794714,1.5160263130243317,-0.019800006544667004
0.07451182058569876,1.5159685735485073,-0.019695239130714467
0.0751225732134504,1.5159111717989793,-0.019543023625838884
0.07573332584120203,1.5158541510799801,-0.019343127752205803
0.07634407846895366,1.5157975532813188,-0.019095393578057746
0.07695483109670527,1.5157414188262432,-0.018799736830886208
0.0775655837244569,1.51568578662386,-0.01845614604270257
0.07817633635220854,1.5156306940260986,-0.018064681532961868
0.07878708897996017,1.5155761767892129,-0.01762547423463972
0.07939784160771181,1.5155222690397838,-0.017138724369768283
0.08000859423546343,1.5154690032451785,-0.016604699980864026
0.08061934686321505,1.515416410188427,-0.01602373532484029
0.08123009949096668,1.5153645189474507,-0.015396229135922082
0.08184085211871832,1.5153133568785668,-0.014722642765554681
0.08245160474646994,1.5152629496042032,-0.014003498205411807
0.08306235737422157,1.5152133210047283,-0.013239376001721039
0.08367311000197321,1.5151644932143085,-0.012430913068073758
0.08428386262972484,1.5151164866206874,-0.011578800404751033
0.08489461525747646,1.515069319868788,-0.010683780731469035
0.08550536788522808,1.5150230098680153,-0.009746646042217495
0.08611612051297972,1.514977571803155,-0.00876823508961827
0.08672687314073135,1.5149330191487302,-0.007749430806361825
0.08733762576848299,1.514889363686703,-0.006691157672088249
0.08794837839623461,1.5148466155273836,-0.005594379033195726
0.08855913102398623,1.5148047831334124,-0.004460094383289665
0.08916988365173786,1.5147638733466802,-0.003289336612411495
0.0897806362794895,1.5147238914180456,-0.0020831692320773068
0.09039138890724112,1.5146848410397087,-0.000842683584254448
0.09100214153499275,1.514646724380094,0.00043100395850248225
0.09161289416274439,1.5146095421211005,0.0017367547944902204
0.09222364679049602,1.514573293497569,0.0030734108883863514
0.09283439941824764,1.514537976338823,0.004439797554055665
0.09344515204599926,1.5145035871121286,0.005834726217631785
0.0940559046737509,1.5144701209679317,0.0072569971538375576
0.09466665730150253,1.5144375717867171,0.008705402189513994
0.09527740992925417,1.5144059322273478,0.01017872736745523
0.09588816255700579,1.5143751937767282,0.011675755564619514
0.09649891518475741,1.5143453468006525,0.013195269058783049
0.09710966781250904,1.5143163805956852,0.014736052037759727
0.09772042044026068,1.514288283441931,0.016296893045673142
0.09833117306801231,1.514261042656549,0.01787658736132087
0.09894192569576393,1.514234644647873,0.019473939303044342
0.09955267832351557,1.5142090749699892,0.02108776445608489
0.10016343095126719,1.5141843183776422,0.022716891817357036
0.10077418357901882,1.5141603588813244,0.02436016585380714
0.10138493620677044,1.5141371798024224,0.02601644847023501
0.10199568883452208,1.5141147638282841,0.02768462088340605
0.10260644146227371,1.5140930930670788,0.029363585398480576
0.10321719409002535,1.5140721491023301,0.03105226708540956
0.10382794671777695,1.514051913046989,0.03274961535252034
0.10443869934552859,1.5140323655969417,0.03445460541455958
0.10504945197328022,1.514013487083825,0.03616623965365601
0.10566020460103186,1.5139952575270494,0.03788354887158738
0.10627095722878349,1.5139776566849084,0.03960559343115666
0.10688170985653511,1.5139606641046883,0.04133146428700776
0.10749246248428675,1.5139442591716654,0.04306028390411358
0.10810321511203837,1.513928421156903,0.044791207064124115
0.10871396773979,1.5139131292637602,0.04652342155944385
0.10932472036754162,1.5138983626730225,0.04825614877565011
0.10993547299529326,1.5138841005865795,0.0499886441622795
0.11054622562304489,1.5138703222695746,0.05172019759393026
0.11115697825079653,1.5138570070909547,0.05345013362215757
0.11176773087854816,1.513844134562359,0.05517781162046913
0.11237848350629977,1.5138316843752893,0.05690262582402648
0.1129892361340514,1.5138196364365077,0.058624005266236914
0.11359998876180304,1.5138079709016137,0.060341413615305664
0.11421074138955467,1.513796668206764,0.06205434891318031
0.11482149401730629,1.5137857090984972,0.06376234322014183
0.11543224664505793,1.513775074661631,0.06546496216851846
0.11604299927280955,1.513764746345217,0.06716180442887594
0.11665375190056118,1.5137547059865286,0.06885250109326373
0.1172645045283128,1.51374493583307,0.07053671497862136
0.11787525715606444,1.5137354185626068,0.07221413985554623
0.11848600978381607,1.5137261373012145,0.07388449960644641
0.1190967624115677,1.51371707563935,0.0755475473178796
0.11970751503931934,1.513708217645959,0.07720306431180722
0.12031826766707095,1.513699547880638,0.07885085912101106
0.12092902029482258,1.513691051403869,0.08049076641305981
0.12153977292257422,1.5136827137853635,0.08212264586918257
0.12215052555032585,1.513674521110537,0.08374638102178965
0.12276127817807747,1.513666459985161,0.08536187805723089
0.1233720308058291,1.5136585175382353,0.08696906458843212
0.12398278343358073,1.5136506814231205,0.08856788840293335
0.12459353606133236,1.513642939816991,0.09015831619174047
0.125204288689084,1.5136352814186593,0.09174033226416088
0.1258150413168356,1.513627695444833,0.09331393725413198
0.12642579394458725,1.513620171624868,0.09487914682290376
0.12703654657233887,1.5136127001940836,0.09643599036389329
0.12764729920009052,1.5136052718857098,0.09798450971374047
0.12825805182784214,1.51359787792154,0.09952475787541824
0.12886880445559376,1.5135905100013631,0.10105679775774185
0.1294795570833454,1.5135831602912524,0.10258070093592885
0.13009030971109703,1.5135758214107888,0.10409654643793097
0.13070106233884865,1.5135684864193044,0.10560441956034132
0.13131181496660027,1.51356114880122,0.10710441071866802
0.13192256759435192,1.5135538024505661,0.10859661433528695
0.13253332022210354,1.5135464416547675,0.11008112776895514
0.1331440728498552,1.5135390610777775,0.11155805028954353
0.13375482547760678,1.5135316557426433,0.11302748210070246
0.13436557810535843,1.513524221013586,0.11448952341419033
0.13497633073311005,1.5135167525776836,0.11594427357772326
0.1355870833608617,1.513509246426231,0.11739183025947868
0.13619783598861332,1.5135016988358665,0.11883228869104323
0.13680858861636494,1.5134941063495364,0.12026574097097673
0.13741934124411656,1.5134864657573874,0.12169227543057605
0.13803009387186818,1.5134787740776494,0.12311197606311416
0.13864084649961983,1.5134710285375974,0.12452492201783559
0.13925159912737145,1.5134632265546533,0.12593118715932552
0.1398623517551231,1.513455365717707,0.12733083969326142
0.14047310438287472,1.5134474437687166,0.1287239418582537
0.14108385701062634,1.5134394585846582,0.13011054968423616
0.141694609638378,1.5134314081598832,0.13149071281702762
0.1423053622661296,1.5134232905889446,0.13286447440872254
0.14291611489388123,1.5134151040499453,0.13423187107285908
0.14352686752163288,1.513406846788464,0.13559293290382746
0.1441376201493845,1.5133985171021054,0.1369476835588626
0.14474837277713615,1.5133901133257177,0.13829614040167648
0.14535912540488774,1.5133816338173258,0.13963831470549434
0.14596987803263936,1.5133730769448142,0.1409742119141715
0.146580630660391,1.513364441073394,0.14230383195907242
0.14719138328814263,1.5133557245538864,0.14362716962946318
0.14780213591589428,1.5133469257118515,0.14494421499384919
0.1484128885436459,1.5133380428375829,0.14625495387006626
0.14902364117139752,1.5133290741769916,0.14755936834111527
0.14963439379914917,1.5133200179233945,0.14885743731355833
0.1502451464269008,1.5133108722102175,0.1501491371161831
0.15085589905465244,1.5133016351046302,0.15143444213489202
0.15146665168240406,1.513292304602108,0.15271332548143107
0.15207740431015568,1.5132828786219326,0.15398575969175346
0.15268815693790733,1.5132733550036257,0.1552517174514028
0.15329890956565892,1.5132637315043131,0.15651117234374862
0.15390966219341054,1.51325400579701,0.15776409961790844
0.1545204148211622,1.5132441754698207,0.15901047697243675
0.1551311674489138,1.5132342380260335,0.16025028535143804
0.15574192007666546,1.5132241908851005,0.16148350974934594
0.15635267270441708,1.5132140313844793,0.16271014002039821
0.1569634253321687,1.5132037567823142,0.1639301716895806
0.15757417795992035,1.513193364260935,0.16514360676098405
0.15818493058767197,1.5131828509311445,0.16635045452040723
0.15879568321542362,1.5131722138372654,0.16755073232791
0.15940643584317524,1.5131614499629162,0.16874446639742569
0.16001718847092686,1.5131505562374818,0.1699316925596852
0.1606279410986785,1.513139529543244,0.17111245700485342
0.1612386937264301,1.5131283667231306,0.17228681700184478
0.16184944635418172,1.513117064589053,0.1734548415909225
0.16246019898193337,1.5131056199307822,0.17461661224628036
0.163070951609685,1.5130940295253255,0.1757722235058526
0.16368170423743664,1.5130822901467633,0.17692178356526783
0.16429245686518826,1.5130703985764984,0.17806541483312308
0.16490320949293988,1.5130583516138716,0.17920325444496382
0.16551396212069153,1.5130461460871032,0.18033545473342003
0.16612471474844315,1.5130337788645072,0.18146218365227829
0.1667354673761948,1.5130212468659372,0.18258362515202428
0.16734622000394642,1.5130085470744103,0.183699979504944
0.16795697263169804,1.5129956765478698,0.1848114635780813
0.16856772525944969,1.512982632431028,0.18591831105198092
0.16917847788720128,1.5129694119672532,0.1870207725840512
0.16978923051495293,1.5129560125104426,0.18811911591504726
0.17039998314270455,1.5129424315368436,0.1892136259175968
0.17101073577045617,1.5129286666567685,0.1903046045857289
0.17162148839820782,1.5129147156261638,0.19139237096495118
0.17223224102595944,1.512900576357982,0.19247726102187818
0.17284299365371106,1.5128862469333186,0.19355962745353575
0.1734537462814627,1.512871725612265,0.19463983943598562
0.17406449890921433,1.5128570108444377,0.19571828231233535
0.17467525153696598,1.5128421012791429,0.19679535722048028
0.1752860041647176,1.5128269957751368,0.1978714806610589
0.17589675679246922,1.5128116934099425,0.19894708400629638
0.17650750942022086,1.5127961934886875,0.20002261295074245
0.17711826204797246,1.5127804955524276,0.2010985269047801
0.1777290146757241,1.5127645993859244,0.2021752983324496
0.17833976730347573,1.512748505024842,0.20325341203496225
0.17895051993122735,1.5127322127623388,0.2043333643814415
0.179561272558979,1.5127157231550243,0.20541566248924567
0.18017202518673062,1.5126990370282558,0.2065008233553995
0.18078277781448224,1.5126821554807532,0.20758937294151855
0.18139353044223389,1.5126650798885115,0.20868184521492084
0.1820042830699855,1.5126478119079938,0.20977878114803905
0.18261503569773715,1.5126303534785859,0.2108807276790711
0.18322578832548878,1.5126127068243038,0.2119882366368839
0.1838365409532404,1.5125948744547406,0.21310186363284453
0.18444729358099204,1.5125768591652446,0.21422216692277313
0.18505804620874364,1.512558664036324,0.21534970624259206
0.18566879883649529,1.512540292432274,0.2164850416204142
0.1862795514642469,1.5125217479990287,0.2176287321691108
0.18689030409199853,1.5125030346612347,0.21878133486242815
0.18750105671975018,1.5124841566185554,0.21994340329863357
0.1881118093475018,1.5124651183412112,0.22111548645478432
0.18872256197525342,1.5124459245647661,0.2222981274360564
0.18933331460300507,1.5124265802841703,0.22349186222325965
0.18994406723075669,1.512407090747076,0.224697218422488
0.19055481985850833,1.5123874614464436,0.22591471402081909
0.19116557248625995,1.5123676981124545,0.22714485615173663
0.19177632511401158,1.5123478067037515,0.22838813987376147
0.19238707774176322,1.5123277933980357,0.229645046966501
0.19299783036951482,1.51230766458204,0.2309160447474692
0.19360858299726647,1.5122874268409066,0.2322015849131594
0.19421933562501809,1.5122670869470032,0.23350210240844055
0.1948300882527697,1.5122466518482014,0.23481801432727115
0.19544084088052135,1.5122261286556582,0.2361497188481752
0.19605159350827298,1.5122055246311268,0.23749759420820046
0.19666234613602462,1.512184847173839,0.2388619977177062
0.19727309876377624,1.5121641038069926,0.2402432648200041
0.19788385139152787,1.5121433021638828,0.24164170819781472
0.1984946040192795,1.5121224499737167,0.24305761693013642
0.19910535664703113,1.5121015550471513,0.24449125570129282
0.19971610927478275,1.512080625261595,0.2459428640654391
0.20032686190253438,1.5120596685463166,0.24741265576806595
0.200937614530286,1.5120386928673972,0.24890081812712916
0.20154836715803764,1.5120177062125764,0.2504075114752145
0.20215911978578927,1.511996716576027,0.2519328686651205
0.20276987241354089,1.5119757319431046,0.25347699463939294
0.20338062504129253,1.511954760275114,0.25503996606628776
0.20399137766904415,1.5119338094941324,0.25662183104209046
0.2046021302967958,1.5119128874679348,0.25822260886165477
0.20521288292454742,1.511892001995058,0.2598422898572787
