frequency,refractiveIndex,absorption
0.0006107526277516292,1.6936458369170968,0.0004666211518950998
0.0012215052555032584,1.6935238900986473,0.0018654795738813135
0.0018322578832548875,1.693320890361021,0.0041935655272277005
0.002443010511006517,1.693037204138146,0.007445880609900112
0.003053763138758146,1.6926733424334182,0.011615464342067535
0.003664515766509775,1.6922299588328091,0.016693431071249508
0.004275268394261404,1.6917078469746927,0.022669016887058496
0.004886021022013034,1.691107937494193,0.029529636153394784
0.005496773649764663,1.6904312944636148,0.037260947188313534
0.006107526277516292,1.6896791113535239,0.04584692654991346
0.006718278905267922,1.6888527065423937,0.055269951320805207
0.00732903153301955,1.687953518405151,0.06551088872499838
0.00793978416077118,1.6869831000135616,0.07654919235977459
0.008550536788522809,1.6859431134832585,0.0883630042819447
0.009161289416274438,1.684835324004023,0.10092926215270999
0.009772042044026067,1.6836615935911103,0.11422381061905615
0.010382794671777697,1.682423874596426,0.12822151609131918
0.010993547299529326,1.6811242030188092,0.14289638406717478
0.011604299927280955,1.679764691653015,0.1582216781512784
0.012215052555032585,1.678347523116684,0.1741700399264148
0.012825805182784214,1.6768749427941751,0.19071360884665672
0.013436557810535843,1.675349251735378,0.20782414134525803
0.014047310438287471,1.6737727995463532,0.22547312837819364
0.0146580630660391,1.6721479773075725,0.24363191065974232
0.015268815693790731,1.6704772105536339,0.2622717908864551
0.01587956832154236,1.6687629523467409,0.2813641422918242
0.01649032094929399,1.6670076764741435,0.3008805129233483
0.017101073577045618,1.6652138707976558,0.32079272508734546
0.01771182620479725,1.6633840307810577,0.3410729694628724
0.018322578832548876,1.6615206532188744,0.36169389344475944
0.018933331460300507,1.6596262301875937,0.3826286833356145
0.019544084088052135,1.6577032432379202,0.4038511400676428
0.020154836715803762,1.655754157844226,0.42533574819622755
0.020765589343555393,1.6537814181248156,0.44705773796789816
0.02137634197130702,1.6517874418443492,0.4689931403254478
0.021987094599058652,1.649774615707182,0.49111883477104523
0.02259784722681028,1.6477452909482908,0.5134125900651172
0.02320859985456191,1.6457017792260582,0.5358530977927695
0.023819352482313542,1.643646348819192,0.5584199988810197
0.02443010511006517,1.641581221128023,0.5810939031989397
0.025040857737816797,1.6395085674785157,0.6038564024173964
0.025651610365568428,1.6374305062256005,0.6266900763470844
0.026262362993320056,1.635349100150926,0.6495784930116677
0.026873115621071687,1.6332663541484969,0.6725062027456723
0.027483868248823314,1.6311842131905696,0.6954587266386525
0.028094620876574942,1.629104560564837,0.718422539670779
0.028705373504326573,1.6270292163730944,0.7413850489095241
0.0293161261320782,1.624959936280618,0.7643345671527385
0.029926878759829835,1.6228984105048654,0.7872602824192945
0.030537631387581463,1.6208462630315028,0.8101522236973138
0.03114838401533309,1.618805051045376,0.8330012233676237
0.03175913664308472,1.6167762645637476,0.8557988767224484
0.03236988927083635,1.6147613262589995,0.8785374989994469
0.03298064189858798,1.612761591457898,0.9012100803473879
0.03359139452633961,1.6107783483046607,0.9238102391340348
0.034202147154091235,1.6088128180751697,0.9463321739971587
0.03481289978184286,1.6068661556300088,0.9687706150288378
0.0354236524095945,1.6049394499942589,0.9911207744691559
0.036034405037346125,1.6030337250524676,1.0133782972700511
0.03664515766509775,1.6011499403476563,1.0355392118732458
0.03725591029284938,1.5992889919737148,1.0575998815268333
0.037866662920601014,1.597451713551155,1.0795569564461414
0.038477415548352635,1.5956388772767465,1.1014073271033675
0.03908816817610427,1.593851195038149,1.1231480789085386
0.039698920803855904,1.5920893195853645,1.1447764485235319
0.040309673431607525,1.5903538457513526,1.1662897820271663
0.04092042605935916,1.5886453117148767,1.187685495128226
0.04153117868711079,1.586964200299208,1.2089610355996325
0.04214193131486242,1.5853109403009376,1.2301138480853573
0.04275268394261404,1.5836859078437227,1.2511413414097825
0.04336343657036568,1.5820894277523831,1.2720408584974332
0.043974189198117304,1.5805217749432368,1.2928096489895833
0.04458494182586893,1.578983175827096,1.3134448446249882
0.04519569445362056,1.5774738097218406,1.3339434374316268
0.045806447081372194,1.5759938102718107,1.3543022607570032
0.04641719970912382,1.5745432668717625,1.3745179731480022
0.04702795233687545,1.5731222260934354,1.3945870450731583
0.047638704964627084,1.5717306931130506,1.4145057484640813
0.048249457592378704,1.5703686331384055,1.4342701490381007
0.04886021022013034,1.5690359728344572,1.4538761013501742
0.049470962847881966,1.5677326017464055,1.47331924650741
0.050081715475633594,1.5664583737196054,1.4925950124701344
0.05069246810338522,1.5652131083156349,1.5116986168494948
0.051303220731136856,1.563996592224013,1.5306250721028158
0.05191397335888848,1.5628085806691736,1.5493691930195186
0.05252472598664011,1.5616487988122705,1.5679256063800673
0.053135478614391746,1.5605169431475128,1.5862887626659161
0.05374623124214337,1.5594126828926331,1.6044529496893354
0.054356983869895,1.5583356613732162,1.6224123080097193
0.05496773649764663,1.557285497400439,1.6401608479955845
0.05557848912539826,1.5562617866418755,1.6576924683905316
0.056189241753149884,1.555264102984876,1.6750009762369908
0.05679999438090152,1.5542919998920022,1.6920801080100358
0.057410747008653146,1.5533450117479777,1.7089235518139658
0.05802149963640477,1.5524226551974483,1.725524970490917
0.0586322522641564,1.5515244304728966,1.7418780254947823
0.059243004891908035,1.5506498227118846,1.757976401381877
0.05985375751965967,1.5497983032627844,1.7738138307729736
0.06046451014741129,1.5489693309780488,1.7893841196427365
0.061075262775162925,1.5481623534940865,1.8046811727970984
0.06168601540291455,1.547376808496616,1.8196990193993292
0.06229676803066618,1.5466121249704663,1.8344318384134366
0.0629075206584178,1.545867724432628,1.8488739838338866
0.06351827328616944,1.5451430221473914,1.8630200095788614
0.06412902591392107,1.5444374283223288,1.876864693926401
0.0647397785416727,1.5437503492838764,1.8904030633793167
0.06535053116942433,1.543081188631274,1.9036304158522614
0.06596128379717596,1.5424293483675386,1.9165423430760329
0.0665720364249276,1.5417942300062628,1.9291347521251059
0.06718278905267921,1.5411752356528925,1.9414038859762128
0.06779354168043085,1.5405717690593201,1.9533463430169358
0.06840429430818247,1.5399832366504882,1.9649590954245706
0.06901504693593409,1.5394090485218606,1.9762395063474731
0.06962579956368573,1.53884861940656,1.9871853458225657
0.07023655219143736,1.53830136961111,1.9977948053747059
0.070847304819189,1.5377667259186536,2.0080665112450156
0.07145805744694061,1.5372441224586997,2.0179995362060583
0.07206881007469225,1.5367330015424077,2.027593409925858
0.07267956270244387,1.5362328144625572,2.036848127850044
0.0732903153301955,1.5357430222573736,2.045764158577982
0.07390106795794714,1.5352630964374805,2.0543424497140945
0.07451182058569876,1.5347925196753103,2.062584432182566
0.0751225732134504,1.5343307864564033,2.070492022999333
0.07573332584120203,1.5338774036920566,2.078067626499491
0.07634407846895366,1.5334318912929439,2.085314134027024
0.07695483109670527,1.5329937827033295,2.092234922095053
0.0775655837244569,1.5325626253956321,2.098833849033324
0.07817633635220854,1.532137981325161,2.1051152501422754
0.07878708897996017,1.531719427344924,2.111083931379018
0.07939784160771181,1.5313065555804997,2.1167451616040616
0.08000859423546343,1.5308989737650356,2.1221046634229994
0.08061934686321505,1.5304963055345064,2.127168602659104
0.08123009949096668,1.5300981906834779,2.13194357650008
0.08184085211871832,1.529704285381648,2.1364366003614887
0.08245160474646994,1.529314262351526,2.1406550935160373
0.08306235737422157,1.528927811007726,2.1446068635394795
0.08367311000197321,1.5285446375583274,2.1483000896262903
0.08428386262972484,1.5281644650689148,2.151743304832019
0.08489461525747646,1.527787033489899,2.1549453773005762
0.08550536788522808,1.5274120996478298,2.157915490537486
0.08611612051297972,1.5270394372014322,2.16066312279144
0.08672687314073135,1.5266688365631786,2.1631980256092542
0.08733762576848299,1.5263001047872427,2.1655302016291276
0.08794837839623461,1.525933065424726,2.16766988168035
0.08855913102398623,1.5255675583471249,2.1696275012576782
0.08916988365173786,1.5252034395389948,2.1714136764390863
0.0897806362794895,1.5248405808608583,2.173039179317649
0.09039138890724112,1.524478869783407,2.174514913017749
0.09100214153499275,1.5241182090941066,2.175851886367003
0.09161289416274439,1.5237585165773133,2.1770611882948807
0.09222364679049602,1.523399724669073,2.1781539620294583
0.09283439941824764,1.5230417800877822,2.179141379163496
0.09344515204599926,1.5226846434419143,2.1800346136614364
0.0940559046737509,1.5223282888160343,2.1808448158768217
0.09466665730150253,1.521972703336364,2.1815830866513055
0.09527740992925417,1.5216178867171424,2.182260451564142
0.09588816255700579,1.5212638507890774,2.1828878354007943
0.09649891518475741,1.520910619011164,2.1834760369081936
0.09710966781250904,1.5205582259671862,2.18403570390343
0.09772042044026068,1.5202067168482036,2.1845773088005838
0.09833117306801231,1.5198561469223377,2.185111124620294
0.09894192569576393,1.5195065809931934,2.1856472015436252
0.09955267832351557,1.5191580928482218,2.1861953440718467
0.10016343095126719,1.5188107646983664,2.186765088849827
0.10077418357901882,1.5184646866103026,2.1873656832118686
0.10138493620677044,1.5181199559326055,2.188006064503244
0.10199568883452208,1.5177766767171461,2.1886948402315674
0.10260644146227371,1.5174349591370422,2.189440269098545
0.10321719409002535,1.517094918902448,2.1902502429592423
0.10382794671777695,1.5167566766754919,2.1911322697572024
0.10443869934552859,1.5164203574856097,2.192093457475569
0.10504945197328022,1.5160860901465762,2.1931404991476766
0.10566020460103186,1.5157540066764394,2.1942796589627376
0.10627095722878349,1.515424241721614,2.1955167595027762
0.10688170985653511,1.5150969319863328,2.196857170142548
0.10749246248428675,1.5147722156686325,2.1983057966407267
0.10810321511203837,1.5144502319040412,2.1998670719486517
0.10871396773979,1.514131120218106,2.20154494825927
0.10932472036754162,1.5138150199888512,2.203342890314734
0.10993547299529326,1.5135020699202468,2.2052638699892513
0.11054622562304489,1.5131924075277388,2.207310362159201
0.11115697825079653,1.5128861686368293,2.209484341870085
0.11176773087854816,1.51258348689569,2.2117872828047886
0.11237848350629977,1.512284493302731,2.2142201570564404
0.1129892361340514,1.511989315750023,2.216783436203194
0.11359998876180304,1.511698078583412,2.21947709368089
0.11421074138955467,1.511410902180139,2.2223006084439296
0.11482149401730629,1.5111279025447082,2.2252529699030594
0.11543224664505793,1.5108491909237345,2.228332684124139
0.11604299927280955,1.5105748734404025,2.2315377812683415
0.11665375190056118,1.5103050507491738,2.2348658242523034
0.1172645045283128,1.5100398177112753,2.2383139186007504
0.11787525715606444,1.509779263091485,2.2418787234636826
0.11848600978381607,1.5095234692766666,2.245556463765026
0.1190967624115677,1.509272512016427,2.2493429434473566
0.11970751503931934,1.5090264601862526,2.253233559773672
0.12031826766707095,1.5087853755733889,2.2572233186452912
0.12092902029482258,1.5085493126856881,2.2613068508904974
0.12153977292257422,1.5083183185835871,2.265478429478227
0.12215052555032585,1.5080924327353131,2.269731987605603
0.12276127817807747,1.5078716868953674,2.2740611376089963
0.1233720308058291,1.5076561050062671,2.278459190643054
0.12398278343358073,1.5074457031234714,2.2829191770722557
0.12459353606133236,1.5072404893633637,2.2874338675166346
0.125204288689084,1.5070404638740968,2.2919957944916787
0.1258150413168356,1.5068456188290633,2.2965972745820467
0.12642579394458725,1.506655938442672,2.3012304310845977
0.12703654657233887,1.506471399008102,2.3058872170596145
0.12764729920009052,1.5062919689566017,2.3105594387232946
0.12825805182784214,1.5061176089378823,2.3152387791172835
0.12886880445559376,1.5059482719211041,2.319916821990057
0.1294795570833454,1.5057839033158815,2.3245850758225477
0.13009030971109703,1.5056244411127175,2.329234997933496
0.13070106233884865,1.5054698160422169,2.3338580185972506
0.13131181496660027,1.5053199517523874,2.338445565109581
0.13192256759435192,1.505174765003305,2.3429890857354807
0.13253332022210354,1.5050341658783775,2.3474800734751713
0.1331440728498552,1.5048980580114124,2.351910089584554
0.13375482547760678,1.5047663388286616,2.356270786788546
0.13436557810535843,1.5046388998049791,2.3605539321255473
0.13497633073311005,1.5045156267332236,2.3647514293644756
0.1355870833608617,1.5043964000059886,2.368855340935759
0.13619783598861332,1.504281094908746,2.3728579093212288
0.13680858861636494,1.5041695819234617,2.3767515778486734
0.13741934124411656,1.504061727041726,2.3805290108389685
0.13803009387186818,1.503957392086441,2.384183113056868
0.13864084649961983,1.5038564350410912,2.3877070484179073
0.13925159912737145,1.5037587103856203,2.3910942579066967
0.1398623517551231,1.5036640694379428,2.3943384766654856
0.14047310438287472,1.5035723607001072,2.3974337502126475
0.14108385701062634,1.5034834302081441,2.400374449754951
0.141694609638378,1.503397121884633,2.403155286560318
0.1423053622661296,1.5033132778930327,2.4057713253599724
0.14291611489388123,1.5032317389928276,2.408217996752104
0.14352686752163288,1.5031523448945676,2.410491108582733
0.1441376201493845,1.5030749346138839,2.4125868562814685
0.14474837277713615,1.5029993468235854,2.4145018321342118
0.14535912540488774,1.5029254202029692,2.416233033476016
0.14596987803263936,1.5028529937834934,2.4177778697930434
0.146580630660391,1.502781907289983,2.4191341687228074
0.14719138328814263,1.5027120014765754,2.4203001809464237
0.14780213591589428,1.5026431184566347,2.4212745839697987
0.1484128885436459,1.5025751020258928,2.4220564847926087
0.14902364117139752,1.502507797978112,2.422645421468002
0.14963439379914917,1.5024410544125892,2.423041363557077
0.1502451464269008,1.502374722032847,2.423244711487106
0.15085589905465244,1.50230865443593,2.42325629482362
0.15146665168240406,1.5022427083916983,2.4230773694694268
0.15207740431015568,1.502176744111599,2.4227096138070783
0.15268815693790733,1.5021106255064058,2.422155123802067
0.15329890956565892,1.502044220432461,2.421416407088688
0.15390966219341054,1.501977400925988,2.4204963760597806
0.1545204148211622,1.5019100434250787,2.4193983399875822
0.1551311674489138,1.5018420289790049,2.4181259962010926
0.15574192007666546,1.5017732434445283,2.4166834203504735
0.15635267270441708,1.5017035776689325,2.4150750557891283
0.1569634253321687,1.5016329276595206,2.4133057021059496
0.15757417795992035,1.5015611947393794,2.411380502843505
0.15818493058767197,1.5014882856892309,2.4093049324374625
0.15879568321542362,1.501414112875228,2.4070847824144934
0.15940643584317524,1.5013385943626014,2.4047261468893883
0.16001718847092686,1.5012616540150767,2.4022354073996444
0.1606279410986785,1.5011832215800345,2.399619217120382
0.1612386937264301,1.5011032327594038,2.3968844845012907
0.16184944635418172,1.501021629266323,2.394038356369022
0.16246019898193337,1.5009383588676275,2.391088200540019
0.163070951609685,1.5008533754122522,2.388041587987297
0.16368170423743664,1.5007666388456742,2.3849062746077943
0.16429245686518826,1.5006781152105453,2.381690182636293
0.16490320949293988,1.500587776633685,2.3784013817514356
0.16551396212069153,1.5004956012996498,2.3750480699218137
0.16612471474844315,1.500401573411098,2.3716385540380784
0.1667354673761948,1.500305683136218,2.368181230378712
0.16734622000394642,1.5002079265434844,2.364684564956236
0.16795697263169804,1.5001083055240632,2.3611570737912966
0.16856772525944969,1.5000068277021728,2.3576073031609726
0.16917847788720128,1.4999035063337622,2.3540438098680228
0.16978923051495293,1.499798360193863,2.350475141577576
0.17039998314270455,1.4996914134530024,2.34690981726653
0.17101073577045617,1.4995826955430862,2.3433563078313533
0.17162148839820782,1.4994722410131618,2.339823016899144
0.17223224102595944,1.4993600893755084,2.336318261884726
0.17284299365371106,1.4992462849424972,2.33285025533804
0.1734537462814627,1.4991308766546954,2.329427086624516
0.17406449890921433,1.4990139179006814,2.326056703977601
0.17467525153696598,1.4988954663290728,2.3227468969665814
0.1752860041647176,1.4987755836532644,2.319505279416505
0.17589675679246922,1.4986543354493793,2.3163392728199566
0.17650750942022086,1.49853179094797,2.3132560902765604
0.17711826204797246,1.4984080228199805,2.3102627209957034
0.1777290146757241,1.4982831069575175,2.3073659153971944
0.17833976730347573,1.4981571222499577,2.3045721708415026
0.17895051993122735,1.4980301503559508,2.301887718021683
0.179561272558979,1.4979022754718572,2.2993185080457104
0.18017202518673062,1.4977735840971755,2.2968702002371835
0.18078277781448224,1.4976441647975132,2.294548150681265
0.18139353044223389,1.49751410796565,2.2923574015384474
0.1820042830699855,1.4973835055812588,2.290302671151229
0.18261503569773715,1.4972524509698186,2.2883883449614997
0.18322578832548878,1.4971210385612836,2.2866184672592382
0.1838365409532404,1.4969893636490466,2.2849967337794355
0.18444729358099204,1.4968575221497376,2.283526485159553
0.18505804620874364,1.4967256103643938,2.2822107012732666
0.18566879883649529,1.4965937247415282,2.2810519964486
0.1862795514642469,1.4964619616426194,2.280052615580634
0.18689030409199853,1.4963304171105258,2.2792144311432514
0.18750105671975018,1.4961991866413358,2.278538941105855
0.1881118093475018,1.4960683649601356,2.278027267755554
0.18872256197525342,1.4959380458011746,2.2776801574254666
0.18933331460300507,1.4958083216928952,2.277497981125908
0.18994406723075669,1.4956792837482744,2.277480736074285
0.19055481985850833,1.4955510214609153,2.2776280481163966
0.19116557248625995,1.4954236225073043,2.2779391750306925
0.19177632511401158,1.4952971725556408,2.2784130107028657
0.19238707774176322,1.4951717550816217,2.2790480901593155
0.19299783036951482,1.4950474511915455,2.2798425954417056
0.19360858299726647,1.4949243394530847,2.280794362306723
0.19421933562501809,1.4948024957340529,2.2819008877306977
0.1948300882527697,1.4946819930494661,2.2831593381967115
0.19544084088052135,1.4945629014171922,2.2845665587412
0.19605159350827298,1.4944452877224368,2.2861190827350786
0.19666234613602462,1.4943292155913157,2.2878131423701658
0.19727309876377624,1.494214745273716,2.289644679823371
0.19788385139152787,1.49410193353565,2.291609359066863
0.1984946040192795,1.4939908335612546,2.2937025782923066
0.19910535664703113,1.4938814948645867,2.2959194829143854
0.19971610927478275,1.493773963211327,2.2982549791188593
0.20032686190253438,1.4936682805504842,2.3007037479182166
0.200937614530286,1.4935644849561627,2.3032602596765006
0.20154836715803764,1.4934626105794395,2.305918789064588
0.20215911978578927,1.4933626876103554,2.308673430405659
0.20276987241354089,1.4932647422500218,2.311518113369569
0.20338062504129253,1.4931687966927922,2.3144466189746065
0.20399137766904415,1.4930748691184512,2.3174525958534615
0.2046021302967958,1.4929829736943256,2.3205295767411913
0.20521288292454742,1.4928931205872076,2.323670995141267
0.20582363555229904,1.49280531598496,2.3268702021252934
0.2064343881800507,1.4927195621276412,2.3301204832234292
0.2070451408078023,1.492635857347969,2.333415075360729
0.2076558934355539,1.4925541961209214,2.3367471837960134
0.20826664606330555,1.4924745691222465,2.3401099990185474
0.20887739869105718,1.492396963295641,2.3434967135606164
0.20948815131880882,1.4923213619283222,2.346900538681088
0.21009890394656044,1.492247744734718,2.350314720879909
0.21070965657431207,1.492176087947967,2.3537325581991677
0.2113204092020637,1.4921063644189072,2.3571474162721895
0.21193116182981533,1.4920385437222181,2.360552744079096
