frequency,refractiveIndex,absorption
0.0006107526277516292,1.4478140125736092,-0.0001841295932825042
0.0012215052555032584,1.4478439119187547,-0.0007364991390962175
0.0018322578832548875,1.447893708385665,-0.0016570509715144652
0.002443010511006517,1.447963348380041,-0.0029456890997920323
0.003053763138758146,1.4480527570058932,-0.0046022793820982835
0.003664515766509775,1.4481618382011228,-0.0066266497588675834
0.004275268394261404,1.4482904749109677,-0.009018590536074386
0.004886021022013034,1.4484385292988622,-0.011777854706099846
0.005496773649764663,1.448605842993969,-0.01490415829158447
0.006107526277516292,1.4487922373745912,-0.018397180695327052
0.006718278905267922,1.4489975138865598,-0.02225656503728666
0.00732903153301955,1.4492214543956432,-0.02648191845816156
0.00793978416077118,1.4494638215727715,-0.0310728123672179
0.008550536788522809,1.4497243593110314,-0.03602878261120565
0.009161289416274438,1.4500027931731299,-0.041349329539820914
0.009772042044026067,1.4502988308680267,-0.047033917943055885
0.010382794671777697,1.4506121627553314,-0.05308197683507982
0.010993547299529326,1.4509424623762137,-0.059492899059477834
0.011604299927280955,1.4512893870091637,-0.06626604069107501
0.012215052555032585,1.4516525782493714,-0.0734007202099936
0.012825805182784214,1.4520316626100822,-0.08089621742480343
0.013436557810535843,1.4524262521444773,-0.08875177212276468
0.014047310438287471,1.4528359450866204,-0.09696658242652953
0.0146580630660391,1.4532603265099977,-0.10553980283875207
0.015268815693790731,1.453698969002035,-0.11447054195794208
0.01587956832154236,1.454151433353324,-0.12375785985109258
0.01649032094929399,1.454617269259943,-0.13340076507133639
0.017101073577045618,1.4550960160375566,-0.14339821131117228
0.01771182620479725,1.4555872033458568,-0.1537490936849955
0.018322578832548876,1.4560903519219706,-0.1644522446373693
0.018933331460300507,1.4566049743215288,-0.1755064294765459
0.019544084088052135,1.4571305756660748,-0.18691034153596509
0.020154836715803762,1.4576666543955545,-0.19866259696948357
0.020765589343555393,1.4582127030245944,-0.21076172918949454
0.02137634197130702,1.4587682089014646,-0.22320618296001973
0.021987094599058652,1.459332654968411,-0.23599430816030767
0.02259784722681028,1.4599055205223384,-0.24912435323726762
0.02320859985456191,1.460486281974617,-0.26259445836854844
0.023819352482313542,1.4610744136089429,-0.27640264836048495
0.02443010511006517,1.461669388336213,-0.2905468253083553
0.025040857737816797,1.4622706784452646,-0.3050247610490045
0.025651610365568428,1.4628777563485371,-0.3198340894381198
0.026262362993320056,1.4634900953215138,-0.3349722984873353
0.026873115621071687,1.4641071702350483,-0.3504367223977428
0.027483868248823314,1.4647284582794553,-0.36622453352935935
0.028094620876574942,1.4653534396794403,-0.3823327343464442
0.028705373504326573,1.4659815983988438,-0.3987581493815147
0.0293161261320782,1.4666124228342052,-0.41549741726124323
0.029926878759829835,1.467245406496216,-0.43254698283809484
0.030537631387581463,1.467880048678001,-0.4499030894740098
0.03114838401533309,1.468515855109342,-0.46756177152032297
0.03175913664308472,1.4691523385958114,-0.4855188470409281
0.03236988927083635,1.4697890196418826,-0.5037699108234467
0.03298064189858798,1.470425427057064,-0.5223103277247003
0.03359139452633961,1.4710610985440828,-0.5411352263944782
0.034202147154091235,1.4716955812682322,-0.5602394934218247
0.03481289978184286,1.4723284324068782,-0.5796177679468724
0.0354236524095945,1.4729592196783041,-0.599264436779109
0.036034405037346125,1.4735875218489394,-0.6191736300622172
0.03664515766509775,1.4742129292181154,-0.6393392175231544
0.03725591029284938,1.4748350440795523,-0.6597548053411082
0.037866662920601014,1.4754534811586637,-0.6804137336701739
0.038477415548352635,1.4760678680250299,-0.7013090748459372
0.03908816817610427,1.4766778454791298,-0.7224336323050742
0.039698920803855904,1.4772830679128155,-0.743779940242088
0.040309673431607525,1.477883203642686,-0.7653402640265904
0.04092042605935916,1.4784779352159119,-0.787106601398985
0.04153117868711079,1.4790669596878394,-0.8090706844612147
0.04214193131486242,1.4796499888709198,-0.8312239824744309
0.04275268394261404,1.4802267495545687,-0.8535577054719647
0.04336343657036568,1.4807969836954695,-0.876062808693984
0.043974189198117304,1.4813604485781775,-0.8987299978439534
0.04458494182586893,1.4819169169456103,-0.921549735166477
0.04519569445362056,1.4824661770994407,-0.9445122463394111
0.045806447081372194,1.4830080329701687,-0.9676075281722342
0.04641719970912382,1.483542304156947,-0.9908253570973092
0.04702795233687545,1.4840688259372248,-1.0141552984382445
0.047638704964627084,1.4845874492463231,-1.0375867164349577
0.048249457592378704,1.4850980406272125,-1.061108785003658
0.04886021022013034,1.485600482150829,-1.0847104992045433
0.049470962847881966,1.4860946713072545,-1.1083806873890762
0.050081715475633594,1.486580520868309,-1.1321080239940606
0.05069246810338522,1.4870579587220867,-1.1558810429481423
0.051303220731136856,1.4875269276800407,-1.179688151653922
0.05191397335888848,1.487987385257355,-1.2035176455053271
0.05252472598664011,1.488439303427393,-1.227357722899071
0.053135478614391746,1.488882668351017,-1.2511965006967203
0.05374623124214337,1.4893174800817637,-1.2750220300915136
0.054356983869895,1.4897437522477441,-1.2988223128343928
0.05496773649764663,1.4901615117114508,-1.3225853177695739
0.05557848912539826,1.4905707982084084,-1.3462989976322186
0.056189241753149884,1.4909716639658956,-1.369951306057937
0.05679999438090152,1.491364173302859,-1.3935302147538229
0.057410747008653146,1.491748402212288,-1.4170237307804396
0.05802149963640477,1.4921244379272685,-1.4404199138943465
0.0586322522641564,1.4924923784719548,-1.463706893900982
0.059243004891908035,1.4928523321988612,-1.4868728879669109
0.05985375751965967,1.4932044173136805,-1.5099062178431095
0.06046451014741129,1.4935487613890386,-1.5327953269493175
0.061075262775162925,1.4938855008684653,-1.5555287972729952
0.06168601540291455,1.494214780561958,-1.578095366034867
0.06229676803066618,1.4945367531344815,-1.600483942076472
0.0629075206584178,1.4948515785886536,-1.6226836219261345
0.06351827328616944,1.495159423743047,-1.6446837054997148
0.06412902591392107,1.4954604617073102,-1.6664737113968073
0.0647397785416727,1.495754871355408,-1.6880433917530533
0.06535053116942433,1.496042836798278,-1.7093827466114397
0.06596128379717596,1.4963245468570416,-1.7304820377780512
0.0665720364249276,1.4966001945380287,-1.7513318021296294
0.06718278905267921,1.4968699765107287,-1.7719228643414626
0.06779354168043085,1.4971340925898107,-1.7922463490080125
0.06840429430818247,1.4973927452222473,-1.8122936921296167
0.06901504693593409,1.4976461389806113,-1.8320566519410908
0.06962579956368573,1.4978944800635061,-1.85152731906087
0.07023655219143736,1.4981379758040738,-1.8706981259407856
0.070847304819189,1.498376834187492,-1.8895618555991647
0.07145805744694061,1.498611263378248,-1.9081116496229384
0.07206881007469225,1.4988414712580578,-1.926341015424605
0.07267956270244387,1.499067664975105,-1.9442438327445766
0.0732903153301955,1.4992900505053242,-1.9618143593899826
0.07390106795794714,1.4995088322263768,-1.9790472362026967
0.07451182058569876,1.4997242125048849,-1.9959374912536227
0.0751225732134504,1.499936391297514,-2.012480543258983
0.07573332584120203,1.5001455657663236,-2.0286722042198857
0.07634407846895366,1.5003519299089139,-2.0445086812848494
0.07695483109670527,1.500555674203723,-2.0599865778392945
0.0775655837244569,1.5007569852708484,-2.0751028938262395
0.07817633635220854,1.5009560455486632,-2.089855025305275
0.07878708897996017,1.5011530329865725,-2.1042407632572013
0.07939784160771181,1.5013481207540536,-2.1182582916441484
0.08000859423546343,1.5015414769662343,-2.131906184735592
0.08061934686321505,1.50173326442608,-2.145183403714235
0.08123009949096668,1.501923640383404,-2.1580892925730173
0.08184085211871832,1.5021127563106635,-2.170623573320437
0.08245160474646994,1.502300757695671,-2.1827863405083887
0.08306235737422157,1.5024877838511779,-2.194578055101867
0.08367311000197321,1.5026739677413306,-2.205999537706342
0.08428386262972484,1.502859435824937,-2.2170519611744113
0.08489461525747646,1.5030443079154727,-2.227736842610781
0.08550536788522808,1.503228697057714,-2.2380560347968754
0.08611612051297972,1.50341270942087,-2.2480117170576954
0.08672687314073135,1.5035964442080443,-2.2576063855932604
0.08733762576848299,1.5037799935818867,-2.266842843298498
0.08794837839623461,1.503963442606168,-2.2757241890965947
0.08855913102398623,1.504146869203137,-2.284253806809035
0.08916988365173786,1.5043303441263467,-2.2924353535909248
0.0897806362794895,1.5045139309487467,-2.3002727479548732
0.09039138890724112,1.504697686065723,-2.3077701574126546
0.09100214153499275,1.504881658712816,-2.3149319857610715
0.09161289416274439,1.5050658909978085,-2.321762860039436
0.09222364679049602,1.5052504179468218,-2.328267617188548
0.09283439941824764,1.505435267564132,-2.334451290438406
0.09344515204599926,1.505620460905314,-2.3403190954542
0.0940559046737509,1.5058060121633328,-2.3458764162710524
0.09466665730150253,1.5059919287672614,-2.3511287910452423
0.09527740992925417,1.5061782114931384,-2.3560818976543874
0.09588816255700579,1.5063648545866382,-2.3607415391739437
0.09649891518475741,1.506551845897079,-2.3651136292633166
0.09710966781250904,1.5067391670223622,-2.3692041774892445
0.09772042044026068,1.5069267934643924,-2.373019274619413
0.09833117306801231,1.5071146947945124,-2.3765650779145093
0.09894192569576393,1.5073028348285038,-2.379847796450942
0.09955267832351557,1.5074911718106707,-2.382873676503425
0.10016343095126719,1.5076796586064982,-2.385648987019096
0.10077418357901882,1.5078682429034476,-2.3881800052097515
0.10138493620677044,1.50805686741931,-2.3904730022968477
0.10199568883452208,1.5082454701176695,-2.392534229433683
0.10260644146227371,1.5084339844299244,-2.3943699038367248
0.10321719409002535,1.508622339483326,-2.3959861951544643
0.10382794671777695,1.5088104603345665,-2.39738921209835
0.10443869934552859,1.5089982682082912,-2.398584989367654
0.10504945197328022,1.509185680740047,-2.39957947489234
0.10566020460103186,1.5093726122231306,-2.400378517418751
0.10627095722878349,1.5095589738587207,-2.400987854466105
0.10688170985653511,1.5097446740088327,-2.4014131006747985
0.10749246248428675,1.5099296184514455,-2.4016597365729115
0.10810321511203837,1.510113710637338,-2.401733097779075
0.10871396773979,1.5102968519480153,-2.401638364667323
0.10932472036754162,1.5104789419542077,-2.4013805525095977
0.10993547299529326,1.5106598786743868,-2.4009645021180708
0.11054622562304489,1.5108395588327503,-2.400394871002538
0.11115697825079653,1.5110178781161574,-2.3996761250597967
0.11176773087854816,1.511194731429438,-2.3988125308108623
0.11237848350629977,1.5113700131486383,-2.3978081481961855
0.1129892361340514,1.5115436173715688,-2.3966668239461555
0.11359998876180304,1.5117154381652709,-2.3953921855313296
0.11421074138955467,1.511885369809829,-2.3939876357066034
0.11482149401730629,1.51205330703809,-2.3924563476523835
0.11543224664505793,1.5122191452707996,-2.3908012607227507
0.11604299927280955,1.5123827808467318,-2.3890250768011714
0.11665375190056118,1.5125441112473565,-2.3871302572688076
0.1172645045283128,1.5127030353156476,-2.385119020585381
0.11787525715606444,1.5128594534685942,-2.382993340483549
0.11848600978381607,1.5130132679031212,-2.380754944771905
0.1190967624115677,1.5131643827949512,-2.3784053147458706
0.11970751503931934,1.5133127044901558,-2.3759456852005214
0.12031826766707095,1.513458141689059,-2.3733770450358955
0.12092902029482258,1.5136006056221745,-2.370700138451677
0.12153977292257422,1.5137400102179468,-2.367915466716581
0.12215052555032585,1.5138762722620331,-2.3650232905038604
0.12276127817807747,1.5140093115479007,-2.3620236327803394
0.1233720308058291,1.514139051018551,-2.358916282235091
0.12398278343358073,1.5142654168992247,-2.355700797230583
0.12459353606133236,1.5143883388208865,-2.352376510264219
0.125204288689084,1.5145077499344335,-2.3489425329189597
0.1258150413168356,1.5146235870154836,-2.3453977612861494
0.12642579394458725,1.5147357905597105,-2.3417408818416057
0.12703654657233887,1.5148443048686535,-2.3379703777537477
0.12764729920009052,1.5149490781260149,-2.334084535602024
0.12825805182784214,1.5150500624644077,-2.3300814524861675
0.12886880445559376,1.515147214022627,-2.325959043500022
0.1294795570833454,1.5152404929934706,-2.3217150495502734
0.13009030971109703,1.5153298636621952,-2.317347045492728
0.13070106233884865,1.5154152944356967,-2.3128524485663573
0.13131181496660027,1.5154967578625456,-2.308228527095972
0.13192256759435192,1.5155742306440092,-2.3034724094420964
0.13253332022210354,1.515647693636214,-2.2985810931715935
0.1331440728498552,1.5157171318436438,-2.2935514544244557
0.13375482547760678,1.5157825344041498,-2.2883802574516476
0.13436557810535843,1.5158438945656831,-2.2830641642988394
0.13497633073311005,1.5159012096550084,-2.277599744611055
0.1355870833608617,1.515954481038589,-2.2719834855344514
0.13619783598861332,1.5160037140759448,-2.2662118016897237
0.13680858861636494,1.5160489180657186,-2.260281045193562
0.13741934124411656,1.516090106184744,-2.2541875157050324
0.13803009387186818,1.5161272954204008,-2.2479274704722947
0.13864084649961983,1.51616050649654,-2.241497134359163
0.13925159912737145,1.5161897637933068,-2.23489270982693
0.1398623517551231,1.5162150952611406,-2.2281103868524115
0.14047310438287472,1.516236532329296,-2.2211463527589057
0.14108385701062634,1.5162541098091846,-2.213996801942067
0.141694609638378,1.5162678657928612,-2.206657945470695
0.1423053622661296,1.5162778415469973,-2.1991260205417738
0.14291611489388123,1.5162840814026257,-2.1913972997760385
0.14352686752163288,1.5162866326410356,-2.183468100332499
0.1441376201493845,1.5162855453760944,-2.175334792828957
0.14474837277713615,1.5162808724333452,-2.1669938100510633
0.14535912540488774,1.5162726692261939,-2.1584416554365897
0.14596987803263936,1.5162609936294924,-2.149674911320856
0.146580630660391,1.516245905850852,-2.140690246929524
0.14719138328814263,1.5162274682999657,-2.131484426108547
0.14780213591589428,1.516205745456269,-2.1220543147781403
0.1484128885436459,1.5161808037352156,-2.112396888101974
0.14902364117139752,1.516152711353468,-2.1025092373614425
0.14963439379914917,1.516121538193286,-2.09238857652609
0.1502451464269008,1.516087355666377,-2.0820322485128915
0.15085589905465244,1.5160502365774966,-2.071437731127439
0.15146665168240406,1.5160102549880383,-2.060602642679433
0.15207740431015568,1.5159674860798718,-2.0495247472695777
0.15268815693790733,1.5159220060196847,-2.03820195973977
0.15329890956565892,1.5158738918240362,-2.026632350285724
0.15390966219341054,1.5158232212253786,-2.0148141487265936
0.1545204148211622,1.5157700725392356,-2.0027457484295996
0.1551311674489138,1.5157145245327603,-1.99042570988871
0.15574192007666546,1.5156566562948797,-1.9778527639531498
0.15635267270441708,1.51559654710819,-1.9650258147089465
0.1569634253321687,1.515534276322802,-1.951943942010476
0.15757417795992035,1.5154699232323185,-1.9386064036624464
0.15818493058767197,1.5154035669520722,-1.9250126372560001
0.15879568321542362,1.5153352862998188,-1.9111622616570152
0.15940643584317524,1.5152651596790045,-1.8970550781508049
0.16001718847092686,1.5151932649647526,-1.8826910712453162
0.1606279410986785,1.5151196793927089,-1.8680704091353704
0.1612386937264301,1.5150444794508502,-1.8531934438314657
0.16184944635418172,1.5149677407743871,-1.838060710957308
0.16246019898193337,1.514889538043855,-1.822672929219977
0.163070951609685,1.5148099448864896,-1.8070309995581364
0.16368170423743664,1.514729033781006,-1.7911360039709516
0.16429245686518826,1.5146468759658198,-1.7749892040374942
0.16490320949293988,1.5145635413508294,-1.7585920391274803
0.16551396212069153,1.5144790984328078,-1.741946124312372
0.16612471474844315,1.5143936142144776,-1.725053247983697
0.1667354673761948,1.514307154127323,-1.7079153691824718
0.16734622000394642,1.5142197819581873,-1.690534614649488
0.16795697263169804,1.514131559779717,-1.6729132756028589
0.16856772525944969,1.5140425478846777,-1.6550538042496161
0.16917847788720128,1.513952804724173,-1.636958810041532
0.16978923051495293,1.5138623868498189,-1.6186310556800474
0.17039998314270455,1.51377134885987,-1.6000734528821514
0.17101073577045617,1.513679743349341,-1.5812890579128756
0.17162148839820782,1.5135876208641037,-1.5622810668959035
0.17223224102595944,1.5134950298590109,-1.543052810909798
0.17284299365371106,1.5134020166600117,-1.5236077508802632
0.1734537462814627,1.513308625430283,-1.503949472276362
0.17406449890921433,1.5132148981403462,-1.4840816796239815
0.17467525153696598,1.5131208745421894,-1.4640081908422664
0.1752860041647176,1.5130265921473502,-1.4437329314169132
0.17589675679246922,1.5129320862089488,-1.4232599284189444
0.17650750942022086,1.5128373897076557,-1.4025933043799839
0.17711826204797246,1.5127425333415452,-1.3817372710353482
0.1777290146757241,1.5126475455198254,-1.3606961229447947
0.17833976730347573,1.5125524523603744,-1.3394742310036378
0.17895051993122735,1.5124572776910634,-1.318076035855261
0.179561272558979,1.512362043054818,-1.2965060412143217
0.18017202518673062,1.512266767718346,-1.27476880711546
0.18078277781448224,1.512171468684502,-1.2528689430970459
0.18139353044223389,1.5120761607081936,-1.230811101332945
0.1820042830699855,1.511980856315804,-1.208599969722294
0.18261503569773715,1.511885565828032,-1.1862402649512385
0.18322578832548878,1.5117902973860748,-1.1637367255382862
0.1838365409532404,1.5116950569810954,-1.1410941048743841
0.18444729358099204,1.5115998484868807,-1.1183171642689076
0.18505804620874364,1.5115046736955935,-1.0954106660166658
0.18566879883649529,1.5114095323565426,-1.0723793664947558
0.1862795514642469,1.5113144222178767,-1.0492280093022668
0.18689030409199853,1.511219339071086,-1.0259613184550862
0.18750105671975018,1.5111242767982296,-1.0025839916466572
0.1881118093475018,1.511029227421774,-0.979100693587344
0.18872256197525342,1.5109341811569263,-0.9555160494322306
0.18933331460300507,1.5108391264663632,-0.9318346383103443
0.18994406723075669,1.5107440501172285,-0.9080609869651908
0.19055481985850833,1.5106489372402891,-0.8841995635182393
0.19116557248625995,1.5105537713911157,-0.8602547713648958
0.19177632511401158,1.5104585346131747,-0.8362309432155075
0.19238707774176322,1.5103632075027078,-0.8121323352873787
0.19299783036951482,1.5102677692752462,-0.7879631216630887
0.19360858299726647,1.5101721978336562,-0.7637273888200828
0.19421933562501809,1.5100764698375748,-0.7394291303415963
0.1948300882527697,1.5099805607740893,-0.7150722418193364
0.19544084088052135,1.5098844450295352,-0.6906605159549195
0.19605159350827298,1.5097880959622816,-0.6661976378670396
0.19666234613602462,1.509691485976352,-0.6416871806140054
0.19727309876377624,1.5095945865957545,-0.6171326009366193
0.19788385139152787,1.509497368539379,-0.5925372352298112
0.1984946040192795,1.5093998017963226,-0.5679042957470269
0.19910535664703113,1.5093018557015103,-0.5432368670445761
0.19971610927478275,1.509203499011467,-0.5185379026709924
0.20032686190253438,1.5091046999801183,-0.4938102221041006
0.200937614530286,1.5090054264344661,-0.4690565079423191
0.20154836715803764,1.508905645850031,-0.44427930335194676
0.20215911978578927,1.5088053254259048,-0.41948100977417957
0.20276987241354089,1.5087044321593104,-0.394663884893529
0.20338062504129253,1.5086029329195134,-0.3698300408714614
0.20399137766904415,1.5085007945209998,-0.34498144284339277
0.2046021302967958,1.5083979837957588,-0.3201199076827935
0.20521288292454742,1.5082944676645826,-0.29524710303119495
0.20582363555229904,1.5081902132072593,-0.2703645465938187
0.2064343881800507,1.5080851877315442,-0.24547360570117505
0.2070451408078023,1.5079793588408112,-0.22057549713366048
0.2076558934355539,1.5078726945002776,-0.19567128720831542
