frequency,refractiveIndex,absorption
0.0006107526277516292,1.5685713348786083,-0.0004119850634873129
0.0012215052555032584,1.568597792271208,-0.001647893890071197
0.0018322578832548875,1.5686418552751504,-0.0037075872410020924
0.002443010511006517,1.5687034749759254,-0.006590832561064406
0.003053763138758146,1.568782583015229,-0.010297303241786349
0.003664515766509775,1.5688790917127033,-0.014826577588269031
0.004275268394261404,1.5689928942219986,-0.020178137488060358
0.004886021022013034,1.5691238647209127,-0.026351366780102223
0.005496773649764663,1.5692718586351717,-0.03334554932156948
0.006107526277516292,1.569436712895456,-0.04115986675014577
0.006718278905267922,1.5696182462270998,-0.04979339593919932
0.00732903153301955,1.5698162594719713,-0.0592451061434215
0.00793978416077118,1.5700305359418258,-0.06951385583249932
0.008550536788522809,1.570260841802488,-0.08059838921078141
0.009161289416274438,1.5705069264881129,-0.0924973324211934
0.009772042044026067,1.5707685231447097,-0.10520918943232711
0.010382794671777697,1.5710453491020735,-0.11873233760823339
0.010993547299529326,1.5713371063732562,-0.13306502296141812
0.011604299927280955,1.57164348218061,-0.14820535509033503
0.012215052555032585,1.57196414950739,-0.164151301804075
0.012825805182784214,1.5722987676739282,-0.1809006834380901
0.013436557810535843,1.572646982937263,-0.19845116686630923
0.014047310438287471,1.5730084291131348,-0.21680025921646404
0.0146580630660391,1.573382728219202,-0.2359453012973304
0.015268815693790731,1.5737694911382585,-0.25588346074819285
0.01587956832154236,1.574168318300295,-0.27661172492296376
0.01649032094929399,1.5745788003820893,-0.2981268935232644
0.017101073577045618,1.575000519023102,-0.320425570996848
0.01771182620479725,1.5754330475563523,-0.3435041587200019
0.018322578832548876,1.5758759517529006,-0.36735884698472
0.018933331460300507,1.5763287905786505,-0.3919856068134909
0.019544084088052135,1.5767911169620226,-0.4173801816270636
0.020154836715803762,1.577262478571129,-0.44353807879243584
0.020765589343555393,1.5777424185989521,-0.4704545610808602
0.02137634197130702,1.578230476555159,-0.49812463806733664
0.021987094599058652,1.5787261890630107,-0.5265430575055797
0.02259784722681028,1.5792290906598856,-0.5557042967141098
0.02320859985456191,1.5797387145998811,-0.5856025540110722
0.023819352482313542,1.5802545936569843,-0.6162317402371895
0.02443010511006517,1.5807762609272764,-0.6475854704076899
0.025040857737816797,1.5813032506285287,-0.6796570555356705
0.025651610365568428,1.5818350988957086,-0.7124394946703319
0.026262362993320056,1.5823713445707248,-0.7459254671949427
0.026873115621071687,1.5829115299848582,-0.7801073254297693
0.027483868248823314,1.5834552017323034,-0.8149770875862439
0.028094620876574942,1.5840019114331143,-0.8505264311186993
0.028705373504326573,1.5845512164840798,-0.886746686520263
0.0293161261320782,1.5851026807958277,-0.9236288316094259
0.029926878759829835,1.5856558755146244,-0.9611634863531482
0.030537631387581463,1.5862103797272569,-0.9993409082721532
0.03114838401533309,1.5867657811474796,-1.0381509884723974
0.03175913664308472,1.5873216767824283,-1.0775832483464038
0.03236988927083635,1.587877673577512,-1.1176268369858553
0.03298064189858798,1.588433389038356,-1.158270529345265
0.03359139452633961,1.588988451828215,-1.1995027251952408
0.034202147154091235,1.5895425023396077,-1.2413114489000925
0.03481289978184286,1.590095193238715,-1.2836843500534363
0.0354236524095945,1.5906461899812427,-1.3266087050019977
0.036034405037346125,1.5911951712985837,-1.3700714192844607
0.03664515766509775,1.5917418296529944,-1.41405903100982
0.03725591029284938,1.592285871660753,-1.4585577151955043
0.037866662920601014,1.5928270184822362,-1.503553289082183
0.038477415548352635,1.5933650061779645,-1.5490312184384951
0.03908816817610427,1.593899586029757,-1.5949766248649548
0.039698920803855904,1.5944305248262074,-1.6413742941018676
0.040309673431607525,1.5949576051118088,-1.6882086853426965
0.04092042605935916,1.5954806253991642,-1.7354639415493056
0.04153117868711079,1.5959994003437834,-1.7831239007617465
0.04214193131486242,1.5965137608810924,-1.831172108390834
0.04275268394261404,1.5970235543254365,-1.879591830477345
0.04336343657036568,1.5975286444308867,-1.9283660678976027
0.043974189198117304,1.5980289114138477,-1.9774775714909014
0.04458494182586893,1.5985242519375142,-2.026908858080217
0.04519569445362056,1.5990145790584347,-2.076642227353277
0.045806447081372194,1.5994998221354229,-2.126659779567777
0.04641719970912382,1.5999799267013228,-2.1769434340402487
0.04702795233687545,1.600454854298096,-2.2274749483750975
0.047638704964627084,1.6009245822759792,-2.278235938385647
0.048249457592378704,1.6013891035573633,-2.329207898658539
0.04886021022013034,1.601848426366395,-2.380372223706469
0.049470962847881966,1.6023025739251717,-2.431710229654521
0.050081715475633594,1.6027515841176836,-2.4832031764013465
0.05069246810338522,1.603195509122625,-2.534832290194633
0.051303220731136856,1.6036344150163493,-2.5865787865593104
0.05191397335888848,1.604068381347326,-2.638423893513488
0.05252472598664011,1.6044975006835256,-2.690348875007944
0.053135478614391746,1.604921878134185,-2.742335054523054
0.05374623124214337,1.6053416308475528,-2.794363838756159
0.054356983869895,1.6057568874862358,-2.8464167413322823
0.05496773649764663,1.6061677876817562,-2.8984754064718676
0.05557848912539826,1.6065744814701017,-2.950521632547613
0.056189241753149884,1.6069771287099834,-3.002537395464765
0.05679999438090152,1.607375898485537,-3.0545048717995833
0.057410747008653146,1.607770968495322,-3.106406461630988
0.05802149963640477,1.6081625244294269,-3.15822481100208
0.0586322522641564,1.6085507593364023,-3.2099428339513056
0.059243004891908035,1.6089358729819687,-3.261543734051801
0.05985375751965967,1.6093180712011952,-3.3130110254026293
0.06046451014741129,1.609697565245988,-3.3643285530154374
0.061075262775162925,1.6100745711296676,-3.4154805125436654
0.06168601540291455,1.6104493089703042,-3.4664514693042636
0.06229676803066618,1.6108220023346513,-3.5172263765425553
0.0629075206584178,1.611192877584161,-3.5677905928973757
0.06351827328616944,1.6115621632249,-3.618129899021688
0.06412902591392107,1.6119300892627955,-3.668230513321456
0.0647397785416727,1.6122968865657963,-3.718079106776176
0.06535053116942433,1.6126627862344458,-3.7676628168071273
0.06596128379717596,1.613028018982158,-3.816969260165173
0.0665720364249276,1.6133928145267074,-3.8659865448101725
0.06718278905267921,1.6137574009940459,-3.9147032807589808
0.06779354168043085,1.6141220043357931,-3.9631085898821135
0.06840429430818247,1.6144868477614358,-4.011192114631593
0.06901504693593409,1.614852151186381,-4.058944025686475
0.06962579956368573,1.6152181306968347,-4.106355028504615
0.07023655219143736,1.6155849980324344,-4.153416368773689
0.070847304819189,1.6159529600875036,-4.200119836756003
0.07145805744694061,1.6163222184316925,-4.246457770525576
0.07206881007469225,1.6166929688507865,-4.2924230580976435
0.07267956270244387,1.617065400908193,-4.338009138456257
0.0732903153301955,1.617439697527868,-4.3832100014831825
0.07390106795794714,1.6178160345990096,-4.428020186800018
0.07451182058569876,1.6181945806031044,-4.47243478153262
0.0751225732134504,1.6185754962636256,-4.516449417012795
0.07573332584120203,1.6189589342186967,-4.56006026443285
0.07634407846895366,1.619345038717023,-4.6032640294711005
0.07695483109670527,1.619733945337287,-4.646057945907882
0.0775655837244569,1.6201257807310674,-4.688439768255413
0.07817633635220854,1.620520662389464,-4.730407763424861
0.07878708897996017,1.6209186984334294,-4.771960701455632
0.07939784160771181,1.6213199874277555,-4.8130978453359425
0.08000859423546343,1.6217246182187217,-4.8538189399417675
0.08061934686321505,1.622132669795217,-4.894124200126433
0.08123009949096668,1.6225442111732762,-4.934014297991085
0.08184085211871832,1.6229593013037313,-4.9734903493708424
0.08245160474646994,1.6233779890028461,-5.012553899569551
0.08306235737422157,1.623800312905621,-5.05120690837921
0.08367311000197321,1.6242263014414302,-5.08945173442188
0.08428386262972484,1.6246559728317518,-5.12729111884921
0.08489461525747646,1.6250893351095028,-5.1647281684409725
0.08550536788522808,1.6255263861596956,-5.201766338139433
0.08611612051297972,1.6259671137808982,-5.238409413062294
0.08672687314073135,1.6264114957671243,-5.274661490032082
0.08733762576848299,1.6268595000095922,-5.310526958667523
0.08794837839623461,1.6273110846179493,-5.346010482074586
0.08855913102398623,1.627766198060335,-5.381116977184078
0.08916988365173786,1.6282247793218203,-5.415851594775896
0.0897806362794895,1.6286867580806115,-5.450219699235196
0.09039138890724112,1.629152054901435,-5.484226848083861
0.09100214153499275,1.6296205814455078,-5.517878771331759
0.09161289416274439,1.6300922406964817,-5.551181350691066
0.09222364679049602,1.6305669272016787,-5.584140598700223
0.09283439941824764,1.631044527328014,-5.616762637800023
0.09344515204599926,1.631524919531875,-5.6490536794080235
0.0940559046737509,1.632007974642331,-5.681020003034719
0.09466665730150253,1.632493556156914,-5.712667935486371
0.09527740992925417,1.6329815205492926,-5.744003830199104
0.09588816255700579,1.633471717588079,-5.775034046746748
0.09649891518475741,1.6339639906660834,-5.805764930566865
0.09710966781250904,1.634458177139165,-5.836202792948983
0.09772042044026068,1.6349541086740433,-5.866353891324302
0.09833117306801231,1.6354516116041813,-5.896224409901869
0.09894192569576393,1.6359505072930258,-5.925820440691125
0.09955267832351557,1.6364506125038083,-5.955147964949853
0.10016343095126719,1.6369517397750715,-5.984212835099215
0.10077418357901882,1.6374536978011913,-6.013020757141066
0.10138493620677044,1.6379562918169943,-6.041577273618351
0.10199568883452208,1.6384593239857583,-6.069887747150613
0.10260644146227371,1.6389625937896999,-6.097957344582945
0.10321719409002535,1.6394658984221933,-6.12579102177858
0.10382794671777695,1.6399690331808991,-6.153393509088261
0.10443869934552859,1.6404717918609302,-6.180769297527915
0.10504945197328022,1.640973967147369,-6.207922625689353
0.10566020460103186,1.6414753510062097,-6.234857467414833
0.10627095722878349,1.6419757350730053,-6.261577520257454
0.10688170985653511,1.6424749110384245,-6.288086194751989
0.10749246248428675,1.6429726710298924,-6.314386604516579
0.10810321511203837,1.6434688079886342,-6.340481557203072
0.10871396773979,1.6439631160412895,-6.366373546315604
0.10932472036754162,1.6444553908654058,-6.3920647439081115
0.10993547299529326,1.6449454300480888,-6.417556994176746
0.11054622562304489,1.6454330334370997,-6.442851807954378
0.11115697825079653,1.6459180034837138,-6.467950358116742
0.11176773087854816,1.6464001455767066,-6.492853475904507
0.11237848350629977,1.6468792683668334,-6.517561648164005
0.1129892361340514,1.6473551840811589,-6.542075015508124
0.11359998876180304,1.6478277088266984,-6.566393371394584
0.11421074138955467,1.6482966628828146,-6.590516162117605
0.11482149401730629,1.6487618709818308,-6.61444248770574
0.11543224664505793,1.6492231625773988,-6.638171103717445
0.11604299927280955,1.6496803721001314,-6.661700423923389
0.11665375190056118,1.6501333392001374,-6.685028523859119
0.1172645045283128,1.650581908976009,-6.708153145236084
0.11787525715606444,1.6510259321899645,-6.731071701188503
0.11848600978381607,1.6514652654688085,-6.753781282340118
0.1190967624115677,1.6518997714904553,-6.776278663663745
0.11970751503931934,1.652329319155764,-6.798560312113181
0.12031826766707095,1.6527537837455086,-6.820622394998573
0.12092902029482258,1.6531730470623092,-6.842460789078962
0.12153977292257422,1.6535869975574455,-6.864071090339515
0.12215052555032585,1.6539955304424172,-6.88544862442597
0.12276127817807747,1.6543985477852774,-6.906588457699314
0.1233720308058291,1.6547959585917025,-6.9274854088794395
0.12398278343358073,1.6551876788708548,-6.948134061240401
0.12459353606133236,1.6555736316861114,-6.968528775321976
0.125204288689084,1.6559537471907877,-6.988663702119467
0.1258150413168356,1.6563279626489928,-7.008532796712269
0.12642579394458725,1.6566962224418205,-7.0281298322949475
0.12703654657233887,1.6570584780590851,-7.047448414567447
0.12764729920009052,1.6574146880768832,-7.066481996447588
0.12825805182784214,1.657764818121228,-7.085223893063338
0.12886880445559376,1.6581088408181337,-7.103667296984388
0.1294795570833454,1.658446735730429,-7.121805293654688
0.13009030971109703,1.6587784892817388,-7.139630876981742
0.13070106233884865,1.6591040946679867,-7.1571369650452095
0.13131181496660027,1.6594235517568745,-7.174316415884322
0.13192256759435192,1.659736866975768,-7.191162043322526
0.13253332022210354,1.660044053188439,-7.207666632794131
0.1331440728498552,1.6603451295612073,-7.22382295713075
0.13375482547760678,1.660640121418903,-7.239623792273066
0.13436557810535843,1.660929060091231,-7.2550619328693156
0.13497633073311005,1.6612119827500214,-7.270130207726059
0.1355870833608617,1.6614889322379292,-7.284821495076626
0.13619783598861332,1.661759956889109,-7.2991287376328025
0.13680858861636494,1.662025110342453,-7.313044957387712
0.13741934124411656,1.662284451347882,-7.326563270141122
0.13803009387186818,1.6625380435663404,-7.339676899713691
0.13864084649961983,1.6627859553639786,-7.352379191825024
0.13925159912737145,1.6630282596011225,-7.364663627607913
0.1398623517551231,1.6632650334165904,-7.376523836731951
0.14047310438287472,1.663496358007895,-7.3879536101145264
0.14108385701062634,1.6637223184078953,-7.398946912195938
0.141694609638378,1.663943003258439,-7.409497892757228
0.1423053622661296,1.664158504581533,-7.419600898262161
0.14291611489388123,1.6643689175485519,-7.429250482706119
0.14352686752163288,1.664574340248043,-7.438441417952892
0.1441376201493845,1.664774873452582,-7.447168703548344
0.14474837277713615,1.6649706203852122,-7.455427575994758
0.14535912540488774,1.6651616864859242,-7.4632135174754834
0.14596987803263936,1.6653481791786546,-7.470522264019756
0.146580630660391,1.66553020763926,-7.477349813097097
0.14719138328814263,1.6657078825648728,-7.483692430636887
0.14780213591589428,1.66588131594509,-7.489546657464685
0.1484128885436459,1.6660506208354093,-7.494909315150525
0.14902364117139752,1.6662159111332449,-7.499777511268171
0.14963439379914917,1.666377301356953,-7.504148644061302
0.1502451464269008,1.666534906428192,-7.5080204065149285
0.15085589905465244,1.666688841457953,-7.511390789836441
0.15146665168240406,1.6668392215365904,-7.514258086342679
0.15207740431015568,1.6669861615281456,-7.516620891759472
0.15268815693790733,1.6671297758692538,-7.518478106935709
0.15329890956565892,1.6672701783728987,-7.5198289389763175
0.15390966219341054,1.6674074820372706,-7.520672901801446
0.1545204148211622,1.6675417988599446,-7.521009816136967
0.1551311674489138,1.6676732396576186,-7.520839808944387
0.15574192007666546,1.6678019138916047,-7.52016331229805
0.15635267270441708,1.6679279294992482,-7.518981061719522
0.1569634253321687,1.668051392731448,-7.517294093978913
0.15757417795992035,1.6681724079964462,-7.515103744373034
0.15818493058767197,1.6682910777100142,-7.512411643491949
0.15879568321542362,1.6684075021521456,-7.509219713487298
0.15940643584317524,1.6685217793304048,-7.505530163851942
0.16001718847092686,1.6686340048499846,-7.501345486727549
0.1606279410986785,1.6687442717905931,-7.496668451750791
0.1612386937264301,1.66885267059021,-7.491502100454246
0.16184944635418172,1.6689592889357947,-7.485849740236116
0.16246019898193337,1.6690642116609782,-7.479714937913014
0.163070951609685,1.6691675206507808,-7.473101512872806
0.16368170423743664,1.6692692947533638,-7.466013529842475
0.16429245686518826,1.6693696096988624,-7.458455291287403
0.16490320949293988,1.669468538025245,-7.450431329459203
0.16551396212069153,1.6695661490112548,-7.441946398108239
0.16612471474844315,1.6696625086163652,-7.433005463878878
0.1667354673761948,1.6697576794277487,-7.423613697404713
0.16734622000394642,1.6698517206141985,-7.413776464122065
0.16795697263169804,1.6699446878869955,-7.403499314818619
0.16856772525944969,1.6700366334676209,-7.392787975936627
0.16917847788720128,1.6701276060622785,-7.3816483396496695
0.16978923051495293,1.6702176508431505,-7.370086453729449
0.17039998314270455,1.6703068094363027,-7.358108511224159
0.17101073577045617,1.6703951199161542,-7.3457208399664085
0.17162148839820782,1.6704826168064209,-7.3329298919274555
0.17223224102595944,1.6705693310874183,-7.319742232442716
0.17284299365371106,1.6706552902096352,-7.306164529321758
0.1734537462814627,1.670740518113431,-7.292203541866531
0.17406449890921433,1.6708250352547747,-7.277866109814383
0.17467525153696598,1.67090885863685,-7.263159142228491
0.1752860041647176,1.6709920018474267,-7.248089606351968
0.17589675679246922,1.6710744751018312,-7.232664516447973
0.17650750942022086,1.6711562852913853,-7.216890922643078
0.17711826204797246,1.6712374360371458,-7.200775899794603
0.1777290146757241,1.671317927748779,-7.184326536401841
0.17833976730347573,1.6713977576884254,-7.1675499235777975
0.17895051993122735,1.6714769200393507,-7.150453144103822
0.179561272558979,1.671555405979237,-7.133043261583359
0.18017202518673062,1.6716332037579014,-7.115327309714842
0.18078277781448224,1.6717102987792756,-7.09731228170187
0.18139353044223389,1.6717866736874416,-7.079005119818615
0.1820042830699855,1.6718623084565245,-7.060412705149021
0.18261503569773715,1.6719371804842547,-7.04154184751577
0.18322578832548878,1.6720112646889629,-7.022399275618235
0.1838365409532404,1.6720845336098356,-7.0029916273948905
0.18444729358099204,1.6721569575101884,-6.983325440625986
0.18505804620874364,1.6722285044835405,-6.963407143794382
0.18566879883649529,1.6722991405622971,-6.943243047217496
0.1862795514642469,1.672368829828777,-6.922839334466791
0.18689030409199853,1.6724375345283984,-6.902202054088442
0.18750105671975018,1.672505215184754,-6.881337111639184
0.1881118093475018,1.6725718307164015,-6.860250262049355
0.18872256197525342,1.6726373385550728,-6.838947102327083
0.18933331460300507,1.6727016947651328,-6.817433064613187
0.18994406723075669,1.6727648541640037,-6.795713409600818
0.19055481985850833,1.6728267704433755,-6.773793220325811
0.19116557248625995,1.6728873962909179,-6.751677396340944
0.19177632511401158,1.6729466835123064,-6.729370648280986
0.19238707774176322,1.6730045831533156,-6.706877492825712
0.19299783036951482,1.6730610456217452,-6.684202248070035
0.19360858299726647,1.6731160208089735,-6.6613490293044535
0.19421933562501809,1.673169458210904,-6.638321745213601
0.1948300882527697,1.6732213070480884,-6.615124094495657
0.19544084088052135,1.6732715163848093,-6.591759562907092
0.19605159350827298,1.6733200352469193,-6.568231420733846
0.19666234613602462,1.6733668127382233,-6.5445427206927445
0.19727309876377624,1.6734117981552028,-6.5206962962616695
0.19788385139152787,1.6734549410998936,-6.496694760439722
0.1984946040192795,1.6734961915907136,-6.472540504936205
0.19910535664703113,1.6735355001710772,-6.448235699785347
0.19971610927478275,1.6735728180155938,-6.423782293385852
0.20032686190253438,1.6736080970337042,-6.3991820129595745
0.200937614530286,1.6736412899705775,-6.374436365426043
0.20154836715803764,1.673672350505115,-6.349546638686921
0.20215911978578927,1.6737012333449286,-6.324513903314379
0.20276987241354089,1.6737278943181202,-6.299339014636342
0.20338062504129253,1.6737522904617779,-6.274022615209821
0.20399137766904415,1.6737743801070255,-6.248565137676702
0.2046021302967958,1.6737941229605477,-6.222966807988421
0.20521288292454742,1.673811480182441,-6.197227648993681
0.20582363555229904,1.673826414460355,-6.1713474843754526
0.2064343881800507,1.673838890079785,-6.145325942929562
0.2070451408078023,1.6738488729904737,-6.119162463167718
0.2076558934355539,1.6738563308688317,-6.0928562982397265
0.20826664606330555,1.673861233176334,-6.066406521156165
0.20887739869105718,1.6738635512138527,-6.0398120302990845
0.20948815131880882,1.6738632581718478,-6.013071555212544
