frequency,refractiveIndex,absorption
0.0006107526277516292,1.4210123861063493,-0.0009311111798821713
0.0012215052555032584,1.4218346712196652,-0.0036712854755613696
0.0018322578832548875,1.4231593932590345,-0.008068539837602097
0.002443010511006517,1.4249248358909432,-0.013892407388601176
0.003053763138758146,1.4270563986389548,-0.02086171627901483
0.003664515766509775,1.429474630748527,-0.028673497136431483
0.004275268394261404,1.4321019894020206,-0.03702801304554041
0.004886021022013034,1.4348676164094416,-0.045647250373303125
0.005496773649764663,1.4377100833895748,-0.05428639693014912
0.006107526277516292,1.440578452980404,-0.06273924580680319
0.006718278905267922,1.4434321456145014,-0.070839056407967
0.00732903153301955,1.4462400763371799,-0.07845642726309349
0.00793978416077118,1.4489794262072522,-0.08549547257257693
0.008550536788522809,1.4516342996014446,-0.09188924968418087
0.009161289416274438,1.454194422080892,-0.09759506642240065
0.009772042044026067,1.4566539621805379,-0.10259004640993022
0.010382794671777697,1.4590105129097326,-0.10686715139691022
0.010993547299529326,1.46126423962365,-0.11043174091202927
0.011604299927280955,1.4634171847018047,-0.11329867625407039
0.012215052555032585,1.4654727116300321,-0.1154899342665299
0.012825805182784214,1.4674350683486932,-0.11703267572248244
0.013436557810535843,1.4693090498974826,-0.11795770568785544
0.014047310438287471,1.4710997420501817,-0.11829826356220437
0.0146580630660391,1.4728123299365539,-0.11808908507407073
0.015268815693790731,1.4744519581002393,-0.11736568507911783
0.01587956832154236,1.4760236307760615,-0.11616381720266775
0.01649032094929399,1.4775321432607789,-0.11451907339207272
0.017101073577045618,1.4789820370526106,-0.11246659288136665
0.01771182620479725,1.4803775729463748,-0.11004085573708763
0.018322578832548876,1.481722717515074,-0.10727554100490237
0.018933331460300507,1.4830211394178556,-0.10420343354362442
0.019544084088052135,1.4842762127833524,-0.10085636699152206
0.020154836715803762,1.485491025559968,-0.09726519304650058
0.020765589343555393,1.4866683912308876,-0.09345976945153718
0.02137634197130702,1.4878108626876894,-0.08946896084313395
0.021987094599058652,1.4889207473640924,-0.08532064802474713
0.02259784722681028,1.4900001229692286,-0.08104174233307514
0.02320859985456191,1.4910508533421774,-0.07665820263406768
0.023819352482313542,1.4920746040887605,-0.07219505316031591
0.02443010511006517,1.493072857766916,-0.06767640092651052
0.025040857737816797,1.4940469284661502,-0.06312545186167892
0.025651610365568428,1.49499797568554,-0.05856452510614027
0.026262362993320056,1.4959270174580435,-0.054015065154118434
0.026873115621071687,1.4968349427004228,-0.04949765169923637
0.027483868248823314,1.497722522790386,-0.045032007170093494
0.028094620876574942,1.4985904223881636,-0.04063700203948561
0.028705373504326573,1.499439209530106,-0.036330658058320676
0.0293161261320782,1.5002693650284111,-0.032130149614315526
0.029926878759829835,1.5010812912148452,-0.028051803446262454
0.030537631387581463,1.5018753200679904,-0.024111096965294
0.03114838401533309,1.502651720763686,-0.020322655444559357
0.03175913664308472,1.5034107066875468,-0.01670024834263486
0.03236988927083635,1.5041524419468577,-0.013256785024029319
0.03298064189858798,1.5048770474171698,-0.010004310134632098
0.03359139452633961,1.5055846063566798,-0.006953998881146547
0.034202147154091235,1.5062751696190575,-0.004116152453162473
0.03481289978184286,1.5069487604930343,-0.0015001938136966523
0.0354236524095945,1.5076053791946502,0.0008853359294773237
0.036034405037346125,1.508245007035804,0.0030327803734279822
0.03664515766509775,1.5088676102905987,0.004935369707803812
0.03725591029284938,1.509473143778952,0.00658722147321935
0.037866662920601014,1.5100615541850775,0.007983340038277583
0.038477415548352635,1.510632783126766,0.009119614659430151
0.03908816817610427,1.5111867699898156,0.009992816003592038
0.039698920803855904,1.5117234545406002,0.010600591029268568
0.040309673431607525,1.5122427793284858,0.010941456137868705
0.04092042605935916,1.512744691888758,0.011014788522930745
0.04153117868711079,1.5132291467556762,0.01082081565957546
0.04214193131486242,1.5136961072945019,0.010360602892548709
0.04275268394261404,1.5141455473605345,0.009636039096034204
0.04336343657036568,1.5145774527926334,0.008649820392472155
0.043974189198117304,1.5149918227480985,0.0074054319323031866
0.04458494182586893,1.5153886708853697,0.00590712774986376
0.04519569445362056,1.5157680264006383,0.004159908724401825
0.045806447081372194,1.516129934924117,0.00216949868699597
0.04641719970912382,1.5164744592814992,-5.768127361255207e-05
0.04702795233687545,1.5168016801259534,-0.0025145402412466663
0.047638704964627084,1.5171116964458118,-0.0051933465640317585
0.048249457592378704,1.5174046259530392,-0.008085758522691479
0.04886021022013034,1.5176806053574825,-0.011182856481261542
0.049470962847881966,1.5179397905318386,-0.014475176418184995
0.050081715475633594,1.5181823565722665,-0.01795274472814313
0.05069246810338522,1.5184084977595576,-0.021605114178424242
0.051303220731136856,1.5186184274257504,-0.025421400898279104
0.05191397335888848,1.5188123777311437,-0.029390322274179956
0.05252472598664011,1.5189905993565969,-0.03350023562113865
0.053135478614391746,1.5191533611160966,-0.037739177496000656
0.05374623124214337,1.5193009494945215,-0.04209490351749834
0.054356983869895,1.5194336681155731,-0.04655492855596189
0.05496773649764663,1.5195518371448464,-0.05110656715533453
0.05557848912539826,1.5196557926329806,-0.055736974050350094
0.056189241753149884,1.5197458858038402,-0.06043318464323039
0.05679999438090152,1.5198224822926274,-0.0651821553054423
0.057410747008653146,1.5198859613387994,-0.06997080337328797
0.05802149963640477,1.5199367149386136,-0.07478604670874836
0.0586322522641564,1.5199751469620375,-0.07961484270106992
0.059243004891908035,1.5200016722387149,-0.08444422658875231
0.05985375751965967,1.520016715617558,-0.08926134898659373
0.06046451014741129,1.5200207110044537,-0.09405351250743056
0.061075262775162925,1.5200141003824466,-0.09880820737402089
0.06168601540291455,1.519997332818641,-0.10351314592248034
0.06229676803066618,1.5199708634619273,-0.10815629590480472
0.0629075206584178,1.519935152535485,-0.11272591250482968
0.06351827328616944,1.5198906643278762,-0.11721056898781623
0.06412902591392107,1.519837866186364,-0.1215991859116047
0.0647397785416727,1.5197772275159382,-0.12588105883348413
0.06535053116942433,1.5197092187873464,-0.1300458844538819
0.06596128379717596,1.519634310557249,-0.13408378514482686
0.0665720364249276,1.5195529725034562,-0.1379853318181429
0.06718278905267921,1.5194656724779945,-0.14174156509479596
0.06779354168043085,1.5193728755805809,-0.14534401474361597
0.06840429430818247,1.5192750432549063,-0.14878471736363472
0.06901504693593409,1.519172632409931,-0.15205623229127244
0.06962579956368573,1.5190660945682215,-0.1551516557190958
0.07023655219143736,1.5189558750431826,-0.1580646330188657
0.070847304819189,1.5188424121468578,-0.1607893692673765
0.07145805744694061,1.5187261364298068,-0.16332063797920257
0.07206881007469225,1.5186074699543897,-0.16565378805461087
0.07267956270244387,1.5184868256026485,-0.16778474895761852
0.0732903153301955,1.5183646064197927,-0.16971003414168545
0.07390106795794714,1.518241204994177,-0.17142674274690128
0.07451182058569876,1.5181170028744824,-0.1729325595952795
0.0751225732134504,1.5179923700247133,-0.1742257535152249
0.07573332584120203,1.5178676643174542,-0.1753051740302194
0.07634407846895366,1.5177432310657353,-0.17617024644944082
0.07695483109670527,1.517619402593727,-0.17682096540169653
0.0775655837244569,1.5174964978463708,-0.17725788685712823
0.07817633635220854,1.5173748220379624,-0.17748211868358238
0.07878708897996017,1.5172546663395843,-0.17749530978720998
0.07939784160771181,1.517136307605226,-0.1772996378894155
0.08000859423546343,1.5170200081363068,-0.17689779599408006
0.08061934686321505,1.5169060154842648,-0.17629297760177215
0.08123009949096668,1.5167945622907988,-0.1754888607282468
0.08184085211871832,1.5166858661652551,-0.17448959078792425
0.08245160474646994,1.5165801295986305,-0.17329976240301037
0.08306235737422157,1.5164775399135546,-0.17192440020159833
0.08367311000197321,1.5163782692496026,-0.17036893866870848
0.08428386262972484,1.5162824745832033,-0.168639201115821
0.08489461525747646,1.5161902977813768,-0.16674137783539666
0.08550536788522808,1.51610186568849,-0.1646820035078265
0.08611612051297972,1.5160172902451712,-0.16246793392949063
0.08672687314073135,1.5159366686384785,-0.1601063221309608
0.08733762576848299,1.515860083482394,-0.1576045939554251
0.08794837839623461,1.5157876030276705,-0.15497042316785895
0.08855913102398623,1.5157192814000173,-0.15221170616595117
0.08916988365173786,1.5156551588655984,-0.14933653636449934
0.0897806362794895,1.515595262122762,-0.14635317832458195
0.09039138890724112,1.515539604618908,-0.1432700417000218
0.09100214153499275,1.5154881868913623,-0.14009565507261101
0.09161289416274439,1.5154409969311027,-0.13683863974850413
0.09222364679049602,1.5153980105681544,-0.1335076835871176
0.09283439941824764,1.5153591918774492,-0.13011151493458878
0.09344515204599926,1.515324493603909,-0.12665887673213108
0.0940559046737509,1.5152938576055057,-0.12315850087026102
0.09466665730150253,1.5152672153130187,-0.1196190828581762
0.09527740992925417,1.5152444882051834,-0.1160492568772061
0.09588816255700579,1.515225588297924,-0.11245757128591384
0.09649891518475741,1.5152104186463247,-0.10885246464341039
0.09710966781250904,1.51519887385799,-0.10524224231534092
0.09772042044026068,1.5151908406164307,-0.10163505372653152
0.09833117306801231,1.5151861982130834,-0.09803887032124475
0.09894192569576393,1.5151848190865864,-0.09446146429085435
0.09955267832351557,1.5151865693679036,-0.09091038812613622
0.10016343095126719,1.5151913094298926,-0.08739295504912219
0.10077418357901882,1.5151988944399155,-0.0839162203766719
0.10138493620677044,1.5152091749140753,-0.08048696386575009
0.10199568883452208,1.5152219972716792,-0.07711167308626907
0.10260644146227371,1.5152372043885283,-0.07379652786581338
0.10321719409002535,1.5152546361476475,-0.0705473858455828
0.10382794671777695,1.5152741299860737,-0.06736976918445853
0.10443869934552859,1.5152955214363533,-0.0642688524444553
0.10504945197328022,1.515318644661403,-0.06124945168617729
0.10566020460103186,1.5153433329814272,-0.05831601479985515
0.10627095722878349,1.5153694193916054,-0.05547261309320885
0.10688170985653511,1.5153967370693018,-0.0527229341526492
0.10749246248428675,1.515425119869577,-0.05007027599130763
0.10810321511203837,1.5154544028078314,-0.047517542491735745
0.10871396773979,1.5154844225284578,-0.045067240147541654
0.10932472036754162,1.5155150177584091,-0.04272147610366468
0.10993547299529326,1.515546029744663,-0.040481957490481786
0.11054622562304489,1.5155773026746118,-0.03834999204234821
0.11115697825079653,1.5156086840784535,-0.036326489987455475
0.11176773087854816,1.5156400252127435,-0.0344119671903262
0.11237848350629977,1.5156711814243196,-0.03260654952557064
0.1129892361340514,1.5157020124938725,-0.030909978455777847
0.11359998876180304,1.5157323829585245,-0.029321617783568992
0.11421074138955467,1.5157621624128401,-0.02784046154330493
0.11482149401730629,1.515791225787758,-0.02646514299374371
0.11543224664505793,1.5158194536070309,-0.025193944670728097
0.11604299927280955,1.515846732220817,-0.024024809453954278
0.11665375190056118,1.515872954016152,-0.02295535259929759
0.1172645045283128,1.5158980176041141,-0.02198287468585729
0.11787525715606444,1.5159218279835596,-0.021104375422581936
0.11848600978381607,1.5159442966813983,-0.020316568258354508
0.1190967624115677,1.5159653418694425,-0.019615895735896307
0.11970751503931934,1.5159848884579503,-0.018998545528798136
0.12031826766707095,1.5160028681660482,-0.018460467098398513
0.12092902029482258,1.5160192195692996,-0.017997388906568965
0.12153977292257422,1.5160338881247526,-0.017604836118370326
0.12215052555032585,1.516046826173865,-0.017278148728674808
0.12276127817807747,1.5160579929237803,-0.0170125000451898
0.1233720308058291,1.5160673544074794,-0.016802915460659696
0.12398278343358073,1.5160748834234037,-0.01664429144672862
0.12459353606133236,1.516080559455189,-0.01653141470220006
0.125204288689084,1.5160843685722174,-0.016458981388524224
0.1258150413168356,1.5160863033117289,-0.01642161638684265
0.12642579394458725,1.5160863625432879,-0.01641389251101683
0.12703654657233887,1.5160845513164367,-0.016430349612941913
0.12764729920009052,1.5160808806924149,-0.016465513517325496
0.12825805182784214,1.5160753675608323,-0.01651391472562492
0.12886880445559376,1.5160680344422461,-0.016570106829206187
0.1294795570833454,1.5160589092775851,-0.01662868457565266
0.13009030971109703,1.5160480252054025,-0.016684301532765938
0.13070106233884865,1.5160354203279516,-0.016731687298141486
0.13131181496660027,1.5160211374670867,-0.01676566420443729
0.13192256759435192,1.516005223911001,-0.016781163472688196
0.13253332022210354,1.515987731152819,-0.016773240769693797
0.1331440728498552,1.5159687146220628,-0.016737091127140988
0.13375482547760678,1.5159482334099998,-0.01666806318423738
0.13436557810535843,1.515926349989882,-0.0165616727177317
0.13497633073311005,1.5159031299330727,-0.016413615426610916
0.1355870833608617,1.5158786416220453,-0.016219778941949616
0.13619783598861332,1.5158529559612122,-0.01597625403521193
0.13680858861636494,1.5158261460865436,-0.015679345001483772
0.13741934124411656,1.5157982870748914,-0.015325579197411088
0.13803009387186818,1.515769455653923,-0.014911715716574429
0.13864084649961983,1.5157397299135436,-0.014434753187840743
0.13925159912737145,1.5157091890196477,-0.013891936686001898
0.1398623517551231,1.5156779129310218,-0.01328076374600119
0.14047310438287472,1.5156459821201769,-0.01259898947602423
0.14108385701062634,1.5156134772988723,-0.01184463076648261
0.141694609638378,1.5155804791490408,-0.011015969596083138
0.1423053622661296,1.5155470680597976,-0.010111555437407847
0.14291611489388123,1.5155133238711855,-0.009130206768510365
0.14352686752163288,1.5154793256252597,-0.008071011698369327
0.1441376201493845,1.5154451513250842,-0.0069333277175791545
0.14474837277713615,1.5154108777021806,-0.005716780586986058
0.14535912540488774,1.5153765799929155,-0.004421262380731191
0.14596987803263936,1.5153423317242922,-0.0030469287001220146
0.146580630660391,1.5153082045095636,-0.0015941950798323524
0.14719138328814263,1.5152742678540463,-6.373260668861289e-05
0.14780213591589428,1.5152405889714837,0.001543537223833099
0.1484128885436459,1.515207232611258,0.003226448388878751
0.14902364117139752,1.5151742608967294,0.004983596929485756
0.14963439379914917,1.5151417331749248,0.006813348223100928
0.1502451464269008,1.5151097058777794,0.008713844907206444
0.15085589905465244,1.5150782323950884,0.010683015422097883
0.15146665168240406,1.5150473629592969,0.012718583140212384
0.15207740431015568,1.515017144542214,0.014818076047540926
0.15268815693790733,1.5149876207637185,0.01697883694210919
0.15329890956565892,1.5149588318124718,0.019198034113073092
0.15390966219341054,1.5149308143786357,0.02147267246390702
0.1545204148211622,1.5149036015985564,0.023799605041051844
0.1551311674489138,1.514877223011349,0.026175544930097897
0.15574192007666546,1.5148517045272785,0.028597077480355785
0.15635267270441708,1.514827068407817,0.031060672817716115
0.1569634253321687,1.5148033332572193,0.03356269860637952
0.15757417795992035,1.5147805140254373,0.03609943301886022
0.15818493058767197,1.5147586220221687,0.03866707787390736
0.15879568321542362,1.5147376649417998,0.041261771901548935
0.15940643584317524,1.5147176468989982,0.04387960409506506
0.16001718847092686,1.5146985684746688,0.046516627108897694
0.1606279410986785,1.5146804267719705,0.04916887066258484
0.1612386937264301,1.5146632154820783,0.05183235491036531
0.16184944635418172,1.5146469249593408,0.05450310373701632
0.16246019898193337,1.5146315423054773,0.05717715794066573
0.163070951609685,1.5146170514624273,0.059850588263623467
0.16368170423743664,1.5146034333134646,0.06251950823381153
0.16429245686518826,1.514590665792154,0.06518008677900111
0.16490320949293988,1.5145787239987247,0.06782856057779542
0.16551396212069153,1.5145675803234224,0.07046124611175804
0.16612471474844315,1.5145572045763787,0.07307455138416218
0.1667354673761948,1.5145475641235329,0.07566498727225664
0.16734622000394642,1.5145386240281316,0.0782291784805688
0.16795697263169804,1.5145303471973162,0.08076387406475702
0.16856772525944969,1.5145226945333037,0.0832659574963408
0.16917847788720128,1.5145156250886598,0.08573245624025311
0.16978923051495293,1.5145090962251577,0.08816055081876614
0.17039998314270455,1.5145030637757082,0.09054758333708146
0.17101073577045617,1.5144974822088497,0.0928910654470121
0.17162148839820782,1.5144923047952783,0.09518868572783311
0.17223224102595944,1.5144874837759053,0.0974383164640003
0.17284299365371106,1.514482970530921,0.09963801980278197
0.1734537462814627,1.514478715749354,0.10178605327519112
0.17406449890921433,1.51447466959862,0.10388087466702545
0.17467525153696598,1.5144707818935457,0.1059211462278306
0.1752860041647176,1.5144670022643807,0.10790573820815696
0.17589675679246922,1.514463280323298,0.10983373171755498
0.17650750942022086,1.5144595658289064,0.1117044208976598
0.17711826204797246,1.5144558088483022,0.1135173144070051
0.1777290146757241,1.5144519599162025,0.11527213621655544
0.17833976730347573,1.5144479701907108,0.1169688257166586
0.17895051993122735,1.5144437916052902,0.11860753713856169
0.179561272558979,1.5144393770165157,0.12018863829588834
0.18017202518673062,1.514434680347222,0.12171270865355356
0.18078277781448224,1.5144296567246496,0.1231805367330263
0.18139353044223389,1.5144242626132387,0.12459311686637822
0.1820042830699855,1.5144184559417195,0.12595164531195624
0.18261503569773715,1.5144121962241812,0.12725751574779143
0.18322578832548878,1.5144054446748183,0.128512314159763
0.1838365409532404,1.514398164316076,0.12971781314456554
0.18444729358099204,1.5143903200799396,0.13087596564783918
0.18505804620874364,1.5143818789021377,0.1319888981610333
0.18566879883649529,1.5143728098090539,0.13305890340114182
0.1862795514642469,1.5143630839971616,0.13408843249954594
0.18689030409199853,1.5143526749048306,0.13508008672735491
0.18750105671975018,1.514341558276369,0.13603660878629167
0.1881118093475018,1.5143297122182044,0.1369608736950307
0.18872256197525342,1.5143171172471115,0.13785587930241452
0.18933331460300507,1.514303756330447,0.13872473645962827
0.18994406723075669,1.514289614918353,0.13957065888477688
0.19055481985850833,1.5142746809679364,0.14039695275348701
0.19116557248625995,1.5142589449594372,0.14120700605044775
0.19177632511401158,1.5142423999044425,0.14200427771684807
0.19238707774176322,1.5142250413462135,0.14279228662943447
0.19299783036951482,1.5142068673522253,0.1435746004469039
0.19360858299726647,1.514187878499038,0.14435482435985486
0.19421933562501809,1.5141680778496382,0.1451365897800567
0.1948300882527697,1.5141474709234224,0.14592354300539973
0.19544084088052135,1.5141260656590012,0.1467193338959601
0.19605159350827298,1.5141038723700317,0.1475276045968445
0.19666234613602462,1.514080903694304,0.1483519783426667
0.19727309876377624,1.5140571745363214,0.1491960483783069
0.19788385139152787,1.5140327020036364,0.15006336702941525
0.1984946040192795,1.5140075053372184,0.15095743495598177
0.19910535664703113,1.5139816058361388,0.15188169062085435
0.19971610927478275,1.5139550267768846,0.15283950000447294
0.20032686190253438,1.5139277933276083,0.15383414659594635
0.200937614530286,1.5138999324576503,0.15486882168912441
0.20154836715803764,1.5138714728426628,0.1559466150116242
0.20215911978578927,1.5138424447656869,0.15707050571325742
0.20276987241354089,1.5138128800145323,0.1582433537382824
0.20338062504129253,1.5137828117758196,0.15946789160573266
0.20399137766904415,1.513752274526054,0.16074671661941842
