frequency,refractiveIndex,absorption
0.0006107526277516292,1.608855065811674,0.0012190573157021712
0.0012215052555032584,1.6083269055011877,0.0048563207417267815
0.0018322578832548875,1.6074556804702296,0.010852777632751422
0.002443010511006517,1.6062546355357588,0.01911240796035262
0.003053763138758146,1.6047416947263042,0.029505542378817834
0.003664515766509775,1.602938883353727,0.04187328885095505
0.004275268394261404,1.6008716396104594,0.056032780566667016
0.004886021022013034,1.5985680507662998,0.07178296298631627
0.005496773649764663,1.5960580510410152,0.088910624344019
0.006107526277516292,1.5933726177120835,0.10719638155652196
0.006718278905267922,1.5905429992081213,0.12642035999080697
0.00732903153301955,1.5876000042404816,0.14636734720906294
0.00793978416077118,1.584573374961406,0.16683125287913236
0.008550536788522809,1.581491260291253,0.18761876431640656
0.009161289416274438,1.5783797985166095,0.2085521445343185
0.009772042044026067,1.5752628115600578,0.22947117275955212
0.010382794671777697,1.5721616074026892,0.2502342726355996
0.010993547299529326,1.5690948823185404,0.2707189085173228
0.011604299927280955,1.5660787110346224,0.2908213543373864
0.012215052555032585,1.5631266107041135,0.3104559526559241
0.012825805182784214,1.5602496635968877,0.32955398478944004
0.013436557810535843,1.5574566835036512,0.348062268110964
0.014047310438287471,1.554754411792168,0.3659415858159482
0.0146580630660391,1.5521477305978957,0.3831650398020634
0.015268815693790731,1.5496398825342954,0.39971640077782805
0.01587956832154236,1.5472326883560994,0.41558851292422155
0.01649032094929399,1.5449267560298596,0.430781794605684
0.017101073577045618,1.5427216765353453,0.4453028625729874
0.01771182620479725,1.5406162033595514,0.45916329525512173
0.018322578832548876,1.5386084140133,0.47237854124299117
0.018933331460300507,1.536695852990295,0.48496697183797527
0.019544084088052135,1.534875656415107,0.49694907135373523
0.020154836715803762,1.5331446592178848,0.5083467554138157
0.020765589343555393,1.5314994860661015,0.5191828054595838
0.02137634197130702,1.5299366275145219,0.5294804067498777
0.021987094599058652,1.528452502940342,0.5392627770132296
0.02259784722681028,1.527043511843274,0.5485528733597298
0.02320859985456191,1.5257060750377494,0.5573731658749127
0.023819352482313542,1.5244366671688228,0.5657454673482601
0.02443010511006517,1.5232318418622344,0.5736908097188778
0.025040857737816797,1.5220882506855686,0.5812293589666734
0.025651610365568428,1.5210026569611588,0.588380361286244
0.026262362993320056,1.5199719453387324,0.5951621144140916
0.026873115621071687,1.5189931279110895,0.601591958920082
0.027483868248823314,1.5180633475417655,0.6076862851131094
0.028094620876574942,1.5171798789708235,0.6134605519448568
0.028705373504326573,1.516340128173994,0.6189293149331553
0.0293161261320782,1.5155416303709215,0.6241062606698989
0.029926878759829835,1.5147820470096016,0.6290042459399454
0.030537631387581463,1.514059161995401,0.6336353398651675
0.03114838401533309,1.513370877383089,0.6380108678111814
0.03175913664308472,1.5127152087083384,0.6421414560611269
0.03236988927083635,1.5120902800998683,0.646037076481555
0.03298064189858798,1.5114943192841743,0.649707090584827
0.03359139452633961,1.5109256525704895,0.6531602925390174
0.034202147154091235,1.510382699883697,0.6564049507933801
0.03481289978184286,1.5098639698966017,0.6594488480828394
0.0354236524095945,1.5093680552996531,0.6622993196491662
0.036034405037346125,1.508893628235547,0.664963289577369
0.03664515766509775,1.5084394359174307,0.6674473051905749
0.03725591029284938,1.508004296442625,0.6697575694841832
0.037866662920601014,1.507587094808336,0.6718999716073674
0.038477415548352635,1.5071867791315345,0.6738801154198968
0.03908816817610427,1.5068023570719664,0.6757033461691438
0.039698920803855904,1.506432892454696,0.6773747753418721
0.040309673431607525,1.506077502086758,0.6788993037540114
0.04092042605935916,1.5057353527611301,0.6802816429460181
0.04153117868711079,1.5054056584402902,0.6815263349548897
0.04214193131486242,1.5050876776110307,0.6826377705349801
0.04275268394261404,1.5047807108018154,0.6836202059000436
0.04336343657036568,1.5044840982538423,0.6844777780582955
0.043974189198117304,1.5041972177369562,0.6852145188111259
0.04458494182586893,1.5039194825016902,0.6858343674838722
0.04519569445362056,1.50365033935893,0.6863411824558264
0.045806447081372194,1.5033892668789655,0.6867387515533535
0.04641719970912382,1.5031357737020294,0.6870308013687849
0.04702795233687545,1.5028893969527832,0.687221005564485
0.047638704964627084,1.502649700751577,0.6873129922198574
0.048249457592378704,1.5024162748157164,0.6873103502761834
0.04886021022013034,1.5021887331443433,0.6872166351326597
0.049470962847881966,1.5019667127809384,0.6870353734441068
0.050081715475633594,1.5017498726478309,0.6867700671696856
0.05069246810338522,1.501537892447462,0.6864241969191387
0.051303220731136856,1.5013304716255307,0.6860012246421635
0.05191397335888848,1.5011273283914597,0.6855045957041773
0.05252472598664011,1.500928198791982,0.6849377403905121
0.053135478614391746,1.5007328358339298,0.6843040748790797
0.05374623124214337,1.5005410086526259,0.6836070017209074
0.054356983869895,1.5003525017225394,0.6828499098655365
0.05496773649764663,1.5001671141071407,0.6820361742679856
0.05557848912539826,1.4999846587451289,0.6811691551117872
0.056189241753149884,1.4998049617704399,0.6802521966822153
0.05679999438090152,1.4996278618636554,0.6792886259217735
0.057410747008653146,1.4994532096326343,0.6782817506999552
0.05802149963640477,1.4992808670203799,0.6772348578268167
0.0586322522641564,1.4991107067383123,0.6761512108400639
0.059243004891908035,1.4989426117233013,0.675034047593396
0.05985375751965967,1.4987764746169412,0.6738865776732738
0.06046451014741129,1.4986121972656952,0.6727119796697465
0.061075262775162925,1.4984496902406685,0.6715133983266092
0.06168601540291455,1.4982888723758652,0.6702939415939795
0.06229676803066618,1.4981296703239233,0.6690566776069198
0.0629075206584178,1.4979720181283767,0.6678046316106109
0.06351827328616944,1.4978158568116307,0.6665407828540522
0.06412902591392107,1.497661133977866,0.6652680614705088
0.0647397785416727,1.4975078034302094,0.6639893453640368
0.06535053116942433,1.4973558248015373,0.662707457119419
0.06596128379717596,1.4972051631983587,0.6614251609517924
0.0665720364249276,1.4970557888572786,0.6601451597112623
0.06718278905267921,1.4969076768135743,0.6588700919573856
0.06779354168043085,1.496760806581483,0.6576025291163651
0.06840429430818247,1.4966151618458212,0.6563449727335939
0.06901504693593409,1.496470730164596,0.6550998518330554
0.06962579956368573,1.4963275026823022,0.6538695203936375
0.07023655219143736,1.496185473853621,0.6526562549524938
0.070847304819189,1.4960446411772605,0.6514622523434193
0.07145805744694061,1.4959050049396974,0.6502896275781898
0.07206881007469225,1.4957665679686003,0.6491404118778521
0.07267956270244387,1.4956293353957293,0.648016550859508
0.0732903153301955,1.4954933144291123,0.6469199028841277
0.07390106795794714,1.4953585141343182,0.6458522375695152
0.07451182058569876,1.4952249452246544,0.6448152344720391
0.0751225732134504,1.4950926198601173,0.6438104819400724
0.07573332584120203,1.4949615514549355,0.6428394761410728
0.07634407846895366,1.4948317544935497,0.6419036202638924
0.07695483109670527,1.4947032443548807,0.641004223897438
0.0775655837244569,1.4945760371447248,0.6401425025851218
0.07817633635220854,1.4944501495361382,0.6393195775555433
0.07878708897996017,1.4943255986176605,0.6385364756280713
0.07939784160771181,1.4942024017492286,0.6377941292920019
0.08000859423546343,1.4940805764256373,0.6370933769573243
0.08061934686321505,1.4939601401474016,0.6364349633747445
0.08123009949096668,1.4938411102988713,0.6358195402222752
0.08184085211871832,1.4937235040334547,0.6352476668550424
0.08245160474646994,1.493607338165799,0.6347198112147686
0.08306235737422157,1.4934926290707868,0.6342363508953412
0.08367311000197321,1.4933793925891887,0.633797574359574
0.08428386262972484,1.4932676439398331,0.6334036823034407
0.08489461525747646,1.493157397638134,0.6330547891623717
0.08550536788522808,1.4930486674208283,0.6327509247550359
0.08611612051297972,1.4929414661767701,0.6324920360588234
0.08672687314073135,1.4928358058836304,0.6322779891124404
0.08733762576848299,1.4927316975503424,0.6321085710387893
0.08794837839623461,1.4926291511651462,0.6319834921835973
0.08855913102398623,1.49252817564907,0.6319023883627916
0.08916988365173786,1.4924287788147015,0.6318648232131302
0.0897806362794895,1.4923309673300866,0.6318702906397751
0.09039138890724112,1.4922347466876023,0.6319182173542198
0.09100214153499275,1.4921401211776528,0.6320079654966981
0.09161289416274439,1.4920470938670267,0.632138835336084
0.09222364679049602,1.4919556665817655,0.6323100680410045
0.09283439941824764,1.491865839894384,0.632520848515617
0.09344515204599926,1.4917776131152947,0.6327703082933259
0.0940559046737509,1.4916909842882715,0.6330575284816742
0.09466665730150253,1.491605950189811,0.63338154275219
0.09527740992925417,1.4915225063322273,0.6337413403679284
0.09588816255700579,1.491440646970334,0.634135869242311
0.09649891518475741,1.49136036511156,0.6345640390228664
0.09710966781250904,1.491281652529342,0.6350247241927404
0.09772042044026068,1.4912044997796523,0.6355167671836213
0.09833117306801231,1.4911288962205,0.6360389814936848
0.09894192569576393,1.491054830034264,0.6365901548037878
0.09955267832351557,1.4909822882527055,0.6371690520854848
0.10016343095126719,1.4909112567845084,0.6377744186946767
0.10077418357901882,1.4908417204452082,0.6384049834448328
0.10138493620677044,1.49077366298935,0.6390594616526692
0.10199568883452208,1.4907070671447402,0.6397365581514729
0.10260644146227371,1.490641914648641,0.6404349702653164
0.10321719409002535,1.4905781862857619,0.6411533907382121
0.10382794671777695,1.490515861927911,0.6418905106135023
0.10443869934552859,1.4904549205751558,0.6426450220566837
0.10504945197328022,1.4903953403983556,0.6434156211171981
0.10566020460103186,1.4903370987829259,0.6442010104238417
0.10627095722878349,1.4902801723736954,0.6449999018083346
0.10688170985653511,1.4902245371207172,0.6458110188530045
0.10749246248428675,1.4901701683258968,0.6466330993571896
0.10810321511203837,1.490117040690305,0.6474648977187427
0.10871396773979,1.4900651283620432,0.648305187225686
0.10932472036754162,1.4900144049845256,0.6491527622551351
0.10993547299529326,1.489964843745058,0.650006440374681
0.11054622562304489,1.489916417423575,0.6508650643439506
0.11115697825079653,1.4898690984414258,0.6517275040123839
0.11176773087854816,1.489822858910071,0.6525926581108172
0.11237848350629977,1.489777670679587,0.6534594559345263
0.1129892361340514,1.4897335053868503,0.6543268589146065
0.11359998876180304,1.4896903345032932,0.6551938620770531
0.11421074138955467,1.4896481293821255,0.6560594953865005
0.11482149401730629,1.4896068613049063,0.6569228249746474
0.11543224664505793,1.4895665015273725,0.657782954250983
0.11604299927280955,1.4895270213244207,0.6586390248964541
0.11665375190056118,1.4894883920341488,0.6594902177385882
0.1172645045283128,1.4894505851008668,0.6603357535086947
0.11787525715606444,1.4894135721169897,0.6611748934811654
0.11848600978381607,1.4893773248637332,0.6620069399954498
0.1190967624115677,1.4893418153505336,0.6628312368616499
0.11970751503931934,1.489307015853117,0.6636471696507595
0.12031826766707095,1.4892728989501562,0.6644541658714918
0.12092902029482258,1.4892394375584495,0.6652516950349058
0.12153977292257422,1.4892066049665615,0.6660392686094577
0.12215052555032585,1.4891743748668826,0.6668164398684099
0.12276127817807747,1.48914272138605,0.6675828036327304
0.1233720308058291,1.4891116191136964,0.668337995911836
0.12398278343358073,1.4890810431294876,0.669081693445898
0.12459353606133236,1.48905096902842,0.6698136131526952
0.125204288689084,1.4890213729443496,0.6705335114827831
0.1258150413168356,1.488992231571738,0.6712411836869134
0.12642579394458725,1.488963522185597,0.6719364629996033
0.12703654657233887,1.4889352226596233,0.6726192197430642
0.12764729920009052,1.4889073114825229,0.6732893603560154
0.12825805182784214,1.4888797677725218,0.6739468263515412
0.12886880445559376,1.488852571290075,0.6745915932093336
0.1294795570833454,1.4888257024487814,0.675223669206052
0.13009030971109703,1.4887991423245195,0.6758430941898135
0.13070106233884865,1.488772872662833,0.6764499383028657
0.13131181496660027,1.4887468758845845,0.6770443006577146
0.13192256759435192,1.4887211350899057,0.6776263079720779
0.13253332022210354,1.4886956340604884,0.6781961131670435
0.1331440728498552,1.488670357260244,0.6787538939342541
0.13375482547760678,1.4886452898343792,0.6792998512765496
0.13436557810535843,1.4886204176069289,0.6798342080274592
0.13497633073311005,1.488595727076802,0.6803572073545426
0.1355870833608617,1.488571205412384,0.6808691112511325
0.13619783598861332,1.4885468404447564,0.681370199021918
0.13680858861636494,1.4885226206595872,0.6818607657666561
0.13741934124411656,1.4884985351877544,0.6823411208668501
0.13803009387186818,1.4884745737947616,0.6828115864799847
0.13864084649961983,1.4884507268690124,0.6832724960457839
0.13925159912737145,1.4884269854090053,0.6837241928085083
0.1398623517551231,1.4884033410095188,0.6841670283598716
0.14047310438287472,1.488379785846849,0.684601361205979
0.14108385701062634,1.4883563126631771,0.6850275553627448
0.141694609638378,1.4883329147501254,0.6854459789828333
0.1423053622661296,1.48830958593158,0.6858570030179366
0.14291611489388123,1.488286320545843,0.6862609999194152
0.14352686752163288,1.4882631134271893,0.6866583423806268
0.1441376201493845,1.4882399598868918,0.6870494021233546
0.14474837277713615,1.4882168556937903,0.6874345487315545
0.14535912540488774,1.4881937970544632,0.6878141485341822
0.14596987803263936,1.488170780593081,0.688188563540074
0.146580630660391,1.4881478033309956,0.6885581504262596
0.14719138328814263,1.4881248626661387,0.6889232595817599
0.14780213591589428,1.4881019563522895,0.6892842342084806
0.1484128885436459,1.4880790824782753,0.6896414094805536
0.14902364117139752,1.4880562394471633,0.6899951117632847
0.14963439379914917,1.4880334259555055,0.6903456578923816
0.1502451464269008,1.4880106409726892,0.6906933545148927
0.15085589905465244,1.4879878837204532,0.6910384974913883
0.15146665168240406,1.4879651536526177,0.6913813713607959
0.15207740431015568,1.4879424504350807,0.691722248867082
0.15268815693790733,1.4879197739261294,0.692061390548434
0.15329890956565892,1.487897124157111,0.6923990443882299
0.15390966219341054,1.4878745013135106,0.6927354455276332
0.1545204148211622,1.4878519057164699,0.6930708160389976
0.1551311674489138,1.4878293378047935,0.6934053647595974
0.15574192007666546,1.487806798117476,0.6937392871845173
0.15635267270441708,1.48778428727678,0.6940727654175589
0.1569634253321687,1.4877618059719042,0.6944059681791712
0.15757417795992035,1.4877393549432623,0.6947390508697848
0.15818493058767197,1.4877169349674042,0.6950721556871559
0.15879568321542362,1.4876945468426017,0.6954054117959652
0.15940643584317524,1.4876721913751203,0.6957389355479334
0.16001718847092686,1.4876498693661935,0.6960728307505858
0.1606279410986785,1.487627581599721,0.6964071889826426
0.1612386937264301,1.4876053288306992,0.6967420899538765
0.16184944635418172,1.4875831117743985,0.6970776019072683
0.16246019898193337,1.4875609310962978,0.6974137820612846
0.163070951609685,1.4875387874027781,0.697750677089735
0.16368170423743664,1.4875166812325855,0.6980883236368802
0.16429245686518826,1.4874946130490632,0.6984267488652716
0.16490320949293988,1.4874725832331508,0.6987659710338004
0.16551396212069153,1.4874505920771535,0.6991060001034392
0.16612471474844315,1.487428639779274,0.699446838367619
0.1667354673761948,1.4874067264389013,0.6997884811052845
0.16734622000394642,1.4873848520526487,0.7001309172532322
0.16795697263169804,1.4873630165111347,0.7004741300955712
0.16856772525944969,1.4873412195964864,0.7008180979671874
0.16917847788720128,1.4873194609805644,0.7011627949685135
0.16978923051495293,1.487297740223882,0.7015081916893233
0.17039998314270455,1.4872760567752117,0.7018542559382919
0.17101073577045617,1.4872544099718548,0.702200953475761
0.17162148839820782,1.4872327990405556,0.7025482487474275
0.17223224102595944,1.4872112230990449,0.7028961056158138
0.17284299365371106,1.4871896811581793,0.7032444880870079
0.1734537462814627,1.4871681721246663,0.7035933610306031
0.17406449890921433,1.4871466948043384,0.7039426908895395
0.17467525153696598,1.4871252479059585,0.7042924463780691
0.1752860041647176,1.4871038300455284,0.7046425991651447
0.17589675679246922,1.4870824397510691,0.7049931245409382
0.17650750942022086,1.4870610754678495,0.705344002064406
0.17711826204797246,1.4870397355640315,0.7056952161893898
0.1777290146757241,1.4870184183367021,0.7060467568677479
0.17833976730347573,1.4869971220182647,0.7063986201268265
0.17895051993122735,1.4869758447831534,0.7067508086200447
0.179561272558979,1.4869545847548442,0.7071033321483726
0.18017202518673062,1.486933340013132,0.7074562081512212
0.18078277781448224,1.486912108601635,0.7078094621650167
0.18139353044223389,1.486890888535503,0.7081631282482265
0.1820042830699855,1.4868696778092931,0.7085172493713718
0.18261503569773715,1.4868484744049801,0.7088718777706627
0.18322578832548878,1.4868272763000734,0.7092270752644326
0.1838365409532404,1.4868060814758062,0.7095829135311837
0.18444729358099204,1.4867848879253676,0.7099394743486294
0.18505804620874364,1.4867636936621436,0.7102968497926155
0.18566879883649529,1.4867424967279403,0.7106551423959114
0.1862795514642469,1.4867212952011573,0.7110144652658174
0.18689030409199853,1.4867000872048826,0.7113749421607795
0.18750105671975018,1.48667887091488,0.7117367075255323
0.1881118093475018,1.4866576445674413,0.7120999064848303
0.18872256197525342,1.486636406467077,0.7124646947957148
0.18933331460300507,1.4866151549940172,0.7128312387588901
0.18994406723075669,1.486593888611501,0.7131997150890477
0.19055481985850833,1.4865726058728292,0.7135703107451062
0.19116557248625995,1.4865513054281514,0.7139432227206128
0.19177632511401158,1.4865299860309769,0.7143186577951998
0.19238707774176322,1.4865086465443786,0.7146968322479956
0.19299783036951482,1.4864872859468763,0.7150779715338982
0.19360858299726647,1.4864659033379763,0.7154623099235861
0.19421933562501809,1.4864444979433584,0.7158500901089401
0.1948300882527697,1.486423069119685,0.7162415627746783
0.19544084088052135,1.4864016163590263,0.7166369861380064
0.19605159350827298,1.4863801392928837,0.7170366254573844
0.19666234613602462,1.4863586376958038,0.7174407525124211
0.19727309876377624,1.4863371114885724,0.7178496450562216
0.19788385139152787,1.4863155607409764,0.7182635862420843
0.1984946040192795,1.486293985674134,0.7186828640264676
0.19910535664703113,1.4862723866623813,0.7191077705497775
0.19971610927478275,1.4862507642347154,0.7195386014973418
0.20032686190253438,1.4862291190757912,0.7199756554424017
0.200937614530286,1.4862074520264676,0.720419233172723
0.20154836715803764,1.4861857640839102,0.7208696370039633
0.20215911978578927,1.4861640564012448,0.7213271700805839
0.20276987241354089,1.4861423302867725,0.7217921356676755
0.20338062504129253,1.4861205872027445,0.7222648364346673
0.20399137766904415,1.4860988287637098,0.7227455737344254
0.2046021302967958,1.4860770567344344,0.7232346468783623
0.20521288292454742,1.4860552730274097,0.7237323524111424
0.20582363555229904,1.4860334796999524,0.7242389833861381
0.2064343881800507,1.486011678950913,0.7247548286441381
0.2070451408078023,1.4859898731169996,0.725280172097398
0.2076558934355539,1.4859680646687337,0.7258152920211688
0.20826664606330555,1.4859462562060513,0.7263604603543342
0.20887739869105718,1.4859244504535623,0.7269159420117817
0.20948815131880882,1.4859026502554875,0.727481994209634
0.21009890394656044,1.4858808585702856,0.7280588658060325
0.21070965657431207,1.4858590784649928,0.7286467966585981
