frequency,refractiveIndex,absorption
0.0006107526277516292,1.4346248919654736,-0.00024208189875915196
0.0012215052555032584,1.4346661825965692,-0.000968453058077895
0.0018322578832548875,1.434734947528034,-0.002179489457987896
0.002443010511006517,1.4348311076746996,-0.003875816368085369
0.003053763138758146,1.434954552507894,-0.006058306301302712
0.003664515766509775,1.4351051402454154,-0.008728076148119875
0.004275268394261404,1.4352826980951368,-0.011886483490303561
0.004886021022013034,1.4354870225515879,-0.015535122093037814
0.005496773649764663,1.4357178797448646,-0.01967581657446254
0.006107526277516292,1.4359750058411331,-0.024310616251576586
0.006718278905267922,1.4362581074938223,-0.02944178816186348
0.00732903153301955,1.436566862344517,-0.03507180926037228
0.00793978416077118,1.436900919572515,-0.04120335779267572
0.008550536788522809,1.4372599004918114,-0.047839303844870174
0.009161289416274438,1.43764339919433,-0.05498269907284937
0.009772042044026067,1.438050983238043,-0.06263676561433146
0.010382794671777697,1.4384821943785449,-0.07080488418859834
0.010993547299529326,1.4389365493426616,-0.0794905813905523
0.011604299927280955,1.4394135406425423,-0.08869751618759145
0.012215052555032585,1.439912637428621,-0.0984294656299301
0.012825805182784214,1.4404332863798692,-0.10869030978747117
0.013436557810535843,1.4409749126296052,-0.11948401592852256
0.014047310438287471,1.441536920725158,-0.1308146219587632
0.0146580630660391,1.4421186956196588,-0.14268621914144733
0.015268815693790731,1.4427196036940741,-0.1551029341231253
0.01587956832154236,1.4433389938078145,-0.1680689102921891
0.01649032094929399,1.4439761983759252,-0.1815882885009114
0.017101073577045618,1.4446305344710624,-0.1956651871851489
0.01771182620479725,1.4453013049483694,-0.21030368191924256
0.018322578832548876,1.4459877995913046,-0.22550778444726546
0.018933331460300507,1.446689296276511,-0.24128142123534185
0.019544084088052135,1.4474050621557573,-0.2576284115933229
0.020154836715803762,1.4481343548530323,-0.2745524454175342
0.020765589343555393,1.448876423674665,-0.2920570606101118
0.02137634197130702,1.449630510830677,-0.3101456202333251
0.021987094599058652,1.4503958526650906,-0.3288212894612391
0.02259784722681028,1.45117168089334,-0.3480870123935571
0.02320859985456191,1.4519572238446026,-0.3679454887999149
0.023819352482313542,1.4527517077069823,-0.3883991508656034
0.02443010511006517,1.4535543577734362,-0.40945014001222896
0.025040857737816797,1.4543643996863023,-0.4311002838689473
0.025651610365568428,1.4551810606782551,-0.45335107347242426
0.026262362993320056,1.45600357080754,-0.4762036407751146
0.026873115621071687,1.4568311641852454,-0.49965873654287557
0.027483868248823314,1.4576630801924275,-0.5237167087242275
0.028094620876574942,1.4584985646848194,-0.5483774813743201
0.028705373504326573,1.459336871182899,-0.573640534216961
0.0293161261320782,1.46017726204506,-0.5995048829279824
0.029926878759829835,1.4610190096215958,-0.6259690602230031
0.030537631387581463,1.4618613973872028,-0.6530310978322443
0.03114838401533309,1.4627037210498284,-0.6806885094424414
0.03175913664308472,1.4635452896334795,-0.7089382746862837
0.03236988927083635,1.4643854265328284,-0.7377768242558267
0.03298064189858798,1.4652234705373377,-0.7672000262152522
0.03359139452633961,1.4660587768227655,-0.7972031735845122
0.034202147154091235,1.4668907179077744,-0.8277809732627937
0.03481289978184286,1.4677186845736498,-0.8589275363561694
0.0354236524095945,1.4685420867449424,-0.8906363699707506
0.036034405037346125,1.4693603543290958,-0.9229003705271231
0.03664515766509775,1.4701729380130621,-0.9557118186475781
0.03725591029284938,1.4709793100150916,-0.9890623756623379
0.037866662920601014,1.4717789647898352,-1.022943081775371
0.038477415548352635,1.4725714196851867,-1.0573443559244977
0.03908816817610427,1.4733562155491524,-1.0922559973648454
0.039698920803855904,1.47413291728541,-1.127667188997592
0.040309673431607525,1.4749011143561006,-1.1635665024603639
0.04092042605935916,1.4756604212307447,-1.19994190498801
0.04153117868711079,1.476410477780105,-1.2367807680469012
0.04214193131486242,1.4771509496141333,-1.2740698777374613
0.04275268394261404,1.4778815283632125,-1.3117954469538586
0.04336343657036568,1.4786019319020594,-1.3499431292826762
0.043974189198117304,1.47931190451584,-1.3884980346146643
0.04458494182586893,1.4800112170081672,-1.4274447464379318
0.04519569445362056,1.4806996667509633,-1.4667673407732156
0.045806447081372194,1.481377077676126,-1.506449406705431
0.04641719970912382,1.4820433002092936,-1.5464740684601967
0.04702795233687545,1.4826982111460911,-1.5868240089664407
0.047638704964627084,1.4833417134714615,-1.6274814948404013
0.048249457592378704,1.4839737361227894,-1.6684284027228147
0.04886021022013034,1.484594233697804,-1.7096462468917932
0.049470962847881966,1.485203186108283,-1.7511162080729705
0.050081715475633594,1.4858005981808957,-1.792819163360839
0.05069246810338522,1.4863864992065312,-1.8347357171626202
0.051303220731136856,1.4869609424397265,-1.8768462330717413
0.05191397335888848,1.4875240045498765,-1.9191308665743259
0.05252472598664011,1.4880757850261346,-1.9615695984892336
0.053135478614391746,1.4886164055378877,-2.004142269040943
0.05374623124214337,1.4891460092530666,-2.0468286124594526
0.054356983869895,1.4896647601162933,-2.089608292004662
0.05496773649764663,1.4901728420894291,-2.1324609353058177
0.05557848912539826,1.4906704583567079,-2.1753661699117117
0.056189241753149884,1.4911578304971067,-2.218303658942408
0.05679999438090152,1.491635197626404,-2.261253136737244
0.057410747008653146,1.492102815511604,-2.3041944443919045
0.05802149963640477,1.4925609556603754,-2.347107565080104
0.0586322522641564,1.4930099043881646,-2.3899726590568786
0.059243004891908035,1.4934499618657577,-2.432770098241428
0.05985375751965967,1.4938814411499979,-2.4754805002811393
0.06046451014741129,1.4943046672003943,-2.5180847619999596
0.061075262775162925,1.4947199758843541,-2.5605640921385846
0.06168601540291455,1.4951277129737672,-2.6029000432952607
0.06229676803066618,1.495528233135587,-2.645074542982512
0.0629075206584178,1.4959218989190983,-2.68706992371519
0.06351827328616944,1.4963090797424263,-2.7288689520535137
0.06412902591392107,1.4966901508808956,-2.770454856525055
0.0647397785416727,1.497065492459648,-2.811811354356769
0.06535053116942433,1.4974354884530077,-2.8529226769519584
0.06596128379717596,1.4978005256928861,-2.8937735940504896
0.0665720364249276,1.4981609928885322,-2.934349436517968
0.06718278905267921,1.4985172796597506,-2.974636117711479
0.06779354168043085,1.4988697755857556,-3.014620153376379
0.06840429430818247,1.4992188692715671,-3.05428868003339
0.06901504693593409,1.4995649474339288,-3.093629471818183
0.06962579956368573,1.4999083940084699,-3.132630955744083
0.07023655219143736,1.500249589279912,-3.171282225358978
0.070847304819189,1.500588909036798,-3.2095730527767983
0.07145805744694061,1.5009267237523212,-3.247493899065375
0.07206881007469225,1.5012633977926484,-3.285035922977494
0.07267956270244387,1.5015992886539486,-3.3221909880197504
0.0732903153301955,1.5019347462293777,-3.358951667853768
0.07390106795794714,1.5022701121071074,-3.395311250030883
0.07451182058569876,1.5026057189002913,-3.4312637380677558
0.0751225732134504,1.5029418896099778,-3.4668038518693285
0.07573332584120203,1.5032789370216082,-3.5019270265155273
0.07634407846895366,1.5036171631359116,-3.536629409426824
0.07695483109670527,1.503956858634715,-3.570907855931247
0.0775655837244569,1.5042983023821699,-3.604759923257381
0.07817633635220854,1.5046417609618297,-3.638183862981372
0.07878708897996017,1.504987488249888,-3.6711786119599426
0.07939784160771181,1.5053357250248178,-3.7037437817843384
0.08000859423546343,1.5056866986135562,-3.735879646792953
0.08061934686321505,1.5060406225743095,-3.7675871306846425
0.08123009949096668,1.5063976964159937,-3.7988677917758076
0.08184085211871832,1.50675810535423,-3.829723806947509
0.08245160474646994,1.5071220201037083,-3.860157954333519
0.08306235737422157,1.507489596706774,-3.8901735947989535
0.08367311000197321,1.507860976397865,-3.9197746522654393
0.08428386262972484,1.5082362855035298,-3.9489655929370686
0.08489461525747646,1.5086156353775584,-3.977751403487437
0.08550536788522808,1.508999122370771,-4.006137568266178
0.08611612051297972,1.5093868278349292,-4.0341300455891425
0.08672687314073135,1.5097788181602132,-4.061735243172519
0.08733762576848299,1.5101751448455334,-4.088959992781394
0.08794837839623461,1.5105758446011126,-4.115811524153497
0.08855913102398623,1.5109809394824634,-4.142297438270855
0.08916988365173786,1.511390437055056,-4.1684256800457336
0.0897806362794895,1.5118043305887912,-4.194204510492329
0.09039138890724112,1.5122225992814027,-4.219642478454418
0.09100214153499275,1.5126452085098705,-4.2447483919606075
0.09161289416274439,1.513072110108859,-4.269531289279552
0.09222364679049602,1.5135032426751491,-4.294000409748626
0.09283439941824764,1.5139385318970737,-4.318165164447086
0.09344515204599926,1.514377890907813,-4.342035106787423
0.0940559046737509,1.51482122066144,-4.365619903098887
0.09466665730150253,1.5152684103305962,-4.388929303273739
0.09527740992925417,1.5157193377245752,-4.411973111549552
0.09588816255700579,1.5161738697266063,-4.434761157499153
0.09649891518475741,1.516631862749129,-4.457303267298751
0.09710966781250904,1.5170931632057647,-4.479609235343337
0.09772042044026068,1.5175576079987017,-4.501688796280179
0.09833117306801231,1.518025025020214,-4.523551597524472
0.09894192569576393,1.5184952336669582,-4.545207172327381
0.09955267832351557,1.518968045365731,-4.566664913456571
0.10016343095126719,1.5194432641093434,-4.587934047554777
0.10077418357901882,1.519920687001237,-4.609023610234873
0.10138493620677044,1.5204001048074776,-4.629942421971463
0.10199568883452208,1.5208813025147847,-4.650699064843176
0.10260644146227371,1.5213640598931848,-4.671301860180938
0.10321719409002535,1.521848152061955,-4.691758847171648
0.10382794671777695,1.5223333500574985,-4.712077762465351
0.10443869934552859,1.5228194214017419,-4.732266020833109
0.10504945197328022,1.5233061306698117,-4.752330696913634
0.10566020460103186,1.5237932400555658,-4.772278508091503
0.10627095722878349,1.5242805099337302,-4.792115798539266
0.10688170985653511,1.52476769941733,-4.811848524458212
0.10749246248428675,1.5252545669091686,-4.831482240543532
0.10810321511203837,1.5257408706461015,-4.8510220877001204
0.10871396773979,1.5262263692349163,-4.870472782031479
0.10932472036754162,1.5267108221786416,-4.8898386051152185
0.10993547299529326,1.5271939903921392,-4.909123395583956
0.11054622562304489,1.5276756367059339,-4.928330542016092
0.11115697825079653,1.5281555263571465,-4.947462977146443
0.11176773087854816,1.5286334274666165,-4.966523173396713
0.11237848350629977,1.5291091115012079,-4.985513139723164
0.1129892361340514,1.529582353720365,-5.004434419779004
0.11359998876180304,1.5300529336061457,-5.023288091377613
0.11421074138955467,1.5305206352758478,-5.042074767247299
0.11482149401730629,1.5309852478765418,-5.060794597057042
0.11543224664505793,1.531446565960793,-5.079447270696551
0.11604299927280955,1.5319043898429832,-5.098032022781757
0.11665375190056118,1.532358525935616,-5.116547638363169
0.1172645045283128,1.532808787065181,-5.134992459801089
0.11787525715606444,1.53325499276704,-5.153364394779432
0.11848600978381607,1.5336969695590765,-5.171660925415082
0.1190967624115677,1.5341345511937068,-5.189879118426848
0.11970751503931934,1.534567578888047,-5.208015636320558
0.12031826766707095,1.5349959015320571,-5.226066749544031
0.12092902029482258,1.535419375874549,-5.244028349564822
0.12153977292257422,1.5358378666869885,-5.261895962821684
0.12215052555032585,1.5362512469051175,-5.279664765497471
0.12276127817807747,1.5366593977484744,-5.297329599058998
0.1233720308058291,1.5370622088179229,-5.314884986511257
0.12398278343358073,1.5374595781714167,-5.332325149306684
0.12459353606133236,1.5378514123782174,-5.349644024854338
0.125204288689084,1.5382376265518913,-5.366835284569171
0.1258150413168356,1.5386181443624571,-5.383892352401494
0.12642579394458725,1.5389928980280627,-5.400808423789724
0.12703654657233887,1.5393618282866868,-5.417576484972913
0.12764729920009052,1.539724884348358,-5.434189332605644
0.12825805182784214,1.5400820238284492,-5.450639593613875
0.12886880445559376,1.5404332126626334,-5.466919745233154
0.1294795570833454,1.5407784250041676,-5.483022135168734
0.13009030971109703,1.5411176431041171,-5.49893900182073
0.13070106233884865,1.5414508571752747,-5.514662494515919
0.13131181496660027,1.5417780652404987,-5.530184693690678
0.13192256759435192,1.5420992729661855,-5.545497630968311
0.13253332022210354,1.5424144934817297,-5.560593309078445
0.1331440728498552,1.5427237471857111,-5.575463721566885
0.13375482547760678,1.5430270615396713,-5.590100872243261
0.13436557810535843,1.5433244708502947,-5.604496794319199
0.13497633073311005,1.5436160160408454,-5.618643569191265
0.1355870833608617,1.5439017444127099,-5.632533344822097
0.13619783598861332,1.544181709397924,-5.6461583536776985
0.13680858861636494,1.5444559703035075,-5.6595109301826225
0.13741934124411656,1.5447245920485202,-5.672583527651048
0.13803009387186818,1.5449876448946438,-5.6853687346632436
0.13864084649961983,1.545245204171184,-5.697859290849431
0.13925159912737145,1.5454973499953157,-5.710048102053681
0.1398623517551231,1.5457441669884078,-5.721928254848402
0.14047310438287472,1.5459857439892521,-5.733493030373273
0.14108385701062634,1.5462221737650035,-5.744735917476612
0.141694609638378,1.5464535527206087,-5.755650625137655
0.1423053622661296,1.5466799806075144,-5.766231094152006
0.14291611489388123,1.546901560232366,-5.7764715080655336
0.14352686752163288,1.5471183971664768,-5.786366303341344
0.1441376201493845,1.5473305994567255,-5.795910178751633
0.14474837277713615,1.5475382773385746,-5.805098103985437
0.14535912540488774,1.5477415429518717,-5.813925327465298
0.14596987803263936,1.5479405100600447,-5.8223873833712565
0.146580630660391,1.5481352937732966,-5.830480097869604
0.14719138328814263,1.5483260102763594,-5.838199594547479
0.14780213591589428,1.5485127765613573,-5.845542299056587
0.1484128885436459,1.5486957101662682,-5.852504942971989
0.14902364117139752,1.5488749289195014,-5.859084566870432
0.14963439379914917,1.5490505506909753,-5.865278522641758
0.1502451464269008,1.5492226931501771,-5.871084475038661
0.15085589905465244,1.5493914735315557,-5.876500402482768
0.15146665168240406,1.54955700840761,-5.8815245971364964
0.15207740431015568,1.54971941346999,-5.886155664260896
0.15268815693790733,1.5498788033189284,-5.890392520872918
0.15329890956565892,1.5500352912612427,-5.894234393723332
0.15390966219341054,1.5501889891171496,-5.897680816614436
0.1545204148211622,1.550340007036106,-5.900731627078217
0.1551311674489138,1.5504884533218402,-5.903386962438664
0.15574192007666546,1.5506344342667444,-5.90564725527901
0.15635267270441708,1.550778053995708,-5.907513228342252
0.1569634253321687,1.5509194143195324,-5.908985888885703
0.15757417795992035,1.5510586145979672,-5.910066522518483
0.15818493058767197,1.5511957516124237,-5.910756686547109
0.15879568321542362,1.5513309194483587,-5.911058202858097
0.15940643584317524,1.5514642093873672,-5.9109731503625875
0.16001718847092686,1.5515957098089084,-5.910503857033859
0.1606279410986785,1.551725506101646,-5.909652891565035
0.1612386937264301,1.5518536805843084,-5.908423054675879
0.16184944635418172,1.5519803124359857,-5.906817370098466
0.16246019898193337,1.5521054776357632,-5.904839075269398
0.163070951609685,1.5522292489115201,-5.902491611760639
0.16368170423743664,1.5523516956977808,-5.899778615475472
0.16429245686518826,1.5524728841024564,-5.896703906639346
0.16490320949293988,1.5525928768822315,-5.893271479617692
0.16551396212069153,1.5527117334264888,-5.889485492584519
0.16612471474844315,1.5528295097494849,-5.885350257075784
0.1667354673761948,1.5529462584905716,-5.880870227451782
0.16734622000394642,1.5530620289222439,-5.876049990298819
0.16795697263169804,1.5531768669657489,-5.870894253796801
0.16856772525944969,1.5532908152139617,-5.86540783708088
0.16917847788720128,1.5534039129613286,-5.859595659621873
0.16978923051495293,1.5535161962405117,-5.853462730653066
0.17039998314270455,1.5536276978655137,-5.84701413866765
0.17101073577045617,1.553738447480935,-5.840255041013159
0.17162148839820782,1.5538484716170935,-5.833190653602888
0.17223224102595944,1.5539577937506721,-5.825826240772187
0.17284299365371106,1.5540664343705883,-5.818167105298959
0.1734537462814627,1.5541744110487576,-5.810218578609705
0.17406449890921433,1.5542817385154453,-5.80198601119338
0.17467525153696598,1.5543884287388507,-5.793474763239882
0.1752860041647176,1.5544944910086125,-5.784690195525508
0.17589675679246922,1.554599932022906,-5.775637660558371
0.17650750942022086,1.5547047559787894,-5.766322494004292
0.17711826204797246,1.554808964665477,-5.756750006405873
0.1777290146757241,1.5549125575602047,-5.746925475210595
0.17833976730347573,1.5550155319263637,-5.736854137120006
0.17895051993122735,1.555117882913571,-5.726541180773062
0.179561272558979,1.555219603659349,-5.715991739774008
0.18017202518673062,1.5553206853921253,-5.70521088607358
0.18078277781448224,1.5554211175351875,-5.694203623713918
0.18139353044223389,1.5555208878113271,-5.6829748829432765
0.1820042830699855,1.5556199823478527,-5.671529514706331
0.18261503569773715,1.5557183857816717,-5.659872285515395
0.18322578832548878,1.5558160813641613,-5.648007872706567
0.1838365409532404,1.555913051065544,-5.635940860082655
0.18444729358099204,1.5560092756784774,-5.623675733943971
0.18505804620874364,1.5561047349206287,-5.611216879507899
0.18566879883649529,1.5561994075359429,-5.598568577715211
0.1862795514642469,1.5562932713943907,-5.585735002420183
0.18689030409199853,1.5563863035899368,-5.572720217963884
0.18750105671975018,1.5564784805365157,-5.559528177122358
0.1881118093475018,1.5565697780618195,-5.54616271942651
0.18872256197525342,1.5566601714986636,-5.532627569845796
0.18933331460300507,1.556749635773774,-5.518926337828286
0.18994406723075669,1.5568381454938036,-5.505062516688925
0.19055481985850833,1.5569256750284317,-5.4910394833343785
0.19116557248625995,1.5570121985903729,-5.476860498315651
0.19177632511401158,1.5570976903121865,-5.462528706196341
0.19238707774176322,1.5571821243197517,-5.448047136223743
0.19299783036951482,1.5572654748022952,-5.433418703290075
0.19360858299726647,1.5573477160788973,-5.418646209169606
0.19421933562501809,1.5574288226613666,-5.403732344018052
0.1948300882527697,1.5575087693134484,-5.388679688117788
0.19544084088052135,1.5575875311062892,-5.373490713854274
0.19605159350827298,1.5576650834701364,-5.358167787907022
0.19666234613602462,1.5577414022422313,-5.342713173638878
0.19727309876377624,1.5578164637109069,-5.327129033665822
0.19788385139152787,1.5578902446558598,-5.311417432592616
0.1984946040192795,1.5579627223846535,-5.2955803398921395
0.19910535664703113,1.5580338747654316,-5.2796196329169005
0.19971610927478275,1.5581036802559294,-5.263537100019597
0.20032686190253438,1.558172117928805,-5.247334443767654
0.200937614530286,1.558239167493356,-5.231013284235213
0.20154836715803764,1.5583048093137162,-5.2145751623523315
0.20215911978578927,1.5583690244235953,-5.198021543295299
0.20276987241354089,1.5584317945376835,-5.181353819901315
0.20338062504129253,1.558493102059791,-5.164573316090868
0.20399137766904415,1.5585529300878824,-5.1476812902794595
0.2046021302967958,1.558611262416089,-5.130678938766092
0.20521288292454742,1.5586680835338615,-5.113567399078633
0.20582363555229904,1.5587233786223804,-5.096347753264762
0.2064343881800507,1.558777133548387,-5.079021031112939
0.2070451408078023,1.5588293348555757,-5.0615882132880055
0.2076558934355539,1.5588799697537132,-5.044050234369874
0.20826664606330555,1.558929026105631,-5.02640798578449
0.20887739869105718,1.5589764924122955,-5.008662318609241
0.20948815131880882,1.5590223577960627,-4.990814046251654
