frequency,refractiveIndex,absorption
0.0006107526277516292,1.526552155929259,-0.00016533626909844508
0.0012215052555032584,1.5265740709531523,-0.0006614505762169487
0.0018322578832548875,1.526610566474263,-0.001488659048743993
0.002443010511006517,1.5266615982584297,-0.0026474873258517623
0.003053763138758146,1.5267271044655952,-0.004138668700363915
0.003664515766509775,1.52680700573751,-0.00596314152051322
0.004275268394261404,1.5269012053104907,-0.008122045854813766
0.004886021022013034,1.5270095891529882,-0.01061671942411968
0.005496773649764663,1.5271320261281371,-0.013448692806025123
0.006107526277516292,1.5272683681810133,-0.0166196839177322
0.006718278905267922,1.5274184505505748,-0.020131591784444264
0.00732903153301955,1.5275820920061483,-0.02398648960165927
0.00793978416077118,1.5277590951083595,-0.028186617100612887
0.008550536788522809,1.5279492464942503,-0.03273437222758442
0.009161289416274438,1.5281523171865643,-0.03763230214862445
0.009772042044026067,1.5283680629268108,-0.04288309359307059
0.010382794671777697,1.5285962245320392,-0.04848956255000647
0.010993547299529326,1.5288365282749539,-0.054454643333804884
0.011604299927280955,1.529088686287167,-0.06078137703573688
0.012215052555032585,1.529352396985204,-0.06747289938072738
0.012825805182784214,1.5296273455189942,-0.07453242800958655
0.013436557810535843,1.529913204242357,-0.08196324920872773
0.014047310438287471,1.530209633205162,-0.0897687041111486
0.0146580630660391,1.530516280666663,-0.09795217439411315
0.015268815693790731,1.530832783629464,-0.10651706750080923
0.01587956832154236,1.531158768393665,-0.1154668014149622
0.01649032094929399,1.531493851130462,-0.12480478901940423
0.017101073577045618,1.5318376384747345,-0.1345344220711758
0.01771182620479725,1.5321897281357317,-0.1446590548279777
0.018322578832548876,1.5325497095252874,-0.15518198736230684
0.018933331460300507,1.5329171644026756,-0.16610644860169752
0.019544084088052135,1.533291667535282,-0.17743557913529134
0.020154836715803762,1.5336727873741696,-0.18917241382874456
0.020765589343555393,1.5340600867436265,-0.2013198642912551
0.02137634197130702,1.5344531235436094,-0.21388070124020933
0.021987094599058652,1.5348514514640599,-0.22685753681072723
0.02259784722681028,1.5352546207099527,-0.24025280685860906
0.02320859985456191,1.535662178735826,-0.25406875330707335
0.023819352482313542,1.5360736709886542,-0.26830740658872965
0.02443010511006517,1.5364886416576367,-0.28297056823552336
0.025040857737816797,1.5369066344296531,-0.2980597936704635
0.025651610365568428,1.5373271932488803,-0.3135763752560112
0.026262362993320056,1.537749863079186,-0.32952132565437875
0.026873115621071687,1.5381741906677144,-0.3458953615561553
0.027483868248823314,1.5385997253082138,-0.36269888783315324
0.028094620876574942,1.5390260196023466,-0.37993198217273
0.028705373504326573,1.5394526302175369,-0.3975943802493586
0.0293161261320782,1.5398791186395193,-0.4156854614902741
0.029926878759829835,1.5403050519180197,-0.43420423549032916
0.030537631387581463,1.5407300034037503,-0.4531493291313716
0.03114838401533309,1.5411535534750607,-0.4725189744596065
0.03175913664308472,1.5415752902524256,-0.49231099737365047
0.03236988927083635,1.541994810299084,-0.5125228071739105
0.03298064189858798,1.5424117193059994,-0.5331513870228908
0.03359139452633961,1.5428256327594678,-0.5541932853627844
0.034202147154091235,1.5432361765895959,-0.5756446083352307
0.03481289978184286,1.5436429877979465,-0.5975010132454062
0.0354236524095945,1.5440457150626903,-0.6197577031090223
0.036034405037346125,1.5444440193196365,-0.642409422318552
0.03664515766509775,1.5448375743174498,-0.6654504534613654
0.03725591029284938,1.5452260671456877,-0.6888746153181812
0.037866662920601014,1.5456091987339708,-0.7126752620678932
0.038477415548352635,1.5459866843210568,-0.7368452837191148
0.03908816817610427,1.546358253892326,-0.761377107786427
0.039698920803855904,1.546723652584538,-0.7862627022231133
0.040309673431607525,1.5470826410565854,-0.8114935796197019
0.04092042605935916,1.5474349958253144,-0.8370608026711521
0.04153117868711079,1.5477805095652442,-0.8629549909126939
0.04214193131486242,1.5481189913715085,-0.8891663287180557
0.04275268394261404,1.5484502669851499,-0.915684574550026
0.04336343657036568,1.5487741789801652,-0.9424990714486167
0.043974189198117304,1.5490905869118043,-0.9695987587366695
0.04458494182586893,1.5493993674256687,-0.996972184918555
0.04519569445362056,1.5497004143274389,-1.0246075217428028
0.045806447081372194,1.5499936386129793,-1.0524925793958224
0.04641719970912382,1.550278968458915,-1.0806148227872552
0.04702795233687545,1.550556349173742,-1.1089613888866625
0.047638704964627084,1.550825743109714,-1.1375191050635105
0.048249457592378704,1.5510871295359474,-1.1662745083814292
0.04886021022013034,1.5513405044731812,-1.1952138657927045
0.049470962847881966,1.5515858804908798,-1.2243231951752962
0.050081715475633594,1.551823286467395,-1.2535882871526267
0.05069246810338522,1.5520527673141,-1.2829947276324072
0.051303220731136856,1.5522743836644137,-1.31252792099921
0.05191397335888848,1.5524882115289333,-1.342173113891235
0.05252472598664011,1.5526943419177464,-1.3719154194928334
0.053135478614391746,1.552892880431296,-1.4017398422695886
0.05374623124214337,1.5530839468211974,-1.4316313030729255
0.054356983869895,1.5532676745224103,-1.4615746645406753
0.05496773649764663,1.5534442101584351,-1.4915547567171872
0.05557848912539826,1.5536137130210312,-1.5215564028189903
0.056189241753149884,1.5537763545262506,-1.551564445069538
0.05679999438090152,1.5539323176484443,-1.5815637705281478
0.057410747008653146,1.5540817963340967,-1.6115393368384119
0.05802149963640477,1.554224994897265,-1.6414761978221721
0.0586322522641564,1.5543621273985,-1.6713595288462562
0.059243004891908035,1.5544934170091267,-1.7011746518907824
0.05985375751965967,1.5546190953627688,-1.7309070602495165
0.06046451014741129,1.5547394018960183,-1.7605424427938023
0.061075262775162925,1.554854583180157,-1.7900667077356882
0.06168601540291455,1.5549648922457888,-1.819466005825992
0.06229676803066618,1.555070587902304,-1.8487267529269316
0.0629075206584178,1.5551719340539543,-1.8778356519015966
0.06351827328616944,1.5552691990144463,-1.9067797137647744
0.06412902591392107,1.5553626548217614,-1.93554627804314
0.0647397785416727,1.5554525765549831,-1.964123032296258
0.06535053116942433,1.5555392416548244,-1.9924980307524243
0.06596128379717596,1.5556229292495196,-2.0206597120160588
0.0665720364249276,1.5557039194876352,-2.0485969158098687
0.06718278905267921,1.5557824928793713,-2.0762988987131994
0.06779354168043085,1.5558589296477898,-2.1037553488676717
0.06840429430818247,1.5559335090914395,-2.130956399618095
0.06901504693593409,1.556006508959616,-2.157892642066396
0.06962579956368573,1.5560782048416382,-2.1845551365145885
0.07023655219143736,1.5561488695712355,-2.2109354227799267
0.070847304819189,1.556218772647281,-2.2370255293659436
0.07145805744694061,1.5562881796717791,-2.262817981479437
0.07206881007469225,1.556357351806271,-2.2883058078824683
0.07267956270244387,1.5564265452473733,-2.313482546577065
0.0732903153301955,1.5564960107224097,-2.338342249318429
0.07390106795794714,1.5565659930058564,-2.362879484958199
0.07451182058569876,1.5566367304572695,-2.3870893416219334
0.0751225732134504,1.556708454581333,-2.410967427727344
0.07573332584120203,1.5567813896105422,-2.434509871852591
0.07634407846895366,1.556855752111042,-2.4577133214669606
0.07695483109670527,1.5569317506120106,-2.4805749405381508
0.0775655837244569,1.5570095852588854,-2.5030924060345283
0.07817633635220854,1.5570894474908148,-2.5252639033394484
0.07878708897996017,1.5571715197424405,-2.547088120602224
0.07939784160771181,1.557255975170278,-2.568564242047083
0.08000859423546343,1.5573429774037082,-2.5896919402669134
0.08061934686321505,1.557432680320682,-2.6104713675302027
0.08123009949096668,1.557525227848147,-2.6309031461291372
0.08184085211871832,1.5576207537870825,-2.6509883578016344
0.08245160474646994,1.5577193816620847,-2.6707285322596843
0.08306235737422157,1.557821224595368,-2.6901256348578295
0.08367311000197321,1.5579263852049219,-2.7091820534389632
0.08428386262972484,1.558034955526679,-2.7279005843933253
0.08489461525747646,1.5581470169603198,-2.7462844179706205
0.08550536788522808,1.558262640238498,-2.7643371228832794
0.08611612051297972,1.558381885419041,-2.7820626302436096
0.08672687314073135,1.5585048018998275,-2.7994652168743506
0.08733762576848299,1.558631428455836,-2.816549488037887
0.08794837839623461,1.5587617932979771,-2.8333203596259113
0.08855913102398623,1.5588959141532182,-2.8497830398533615
0.08916988365173786,1.5590337983654305,-2.865943010504696
0.0897806362794895,1.5591754430165017,-2.8818060077744914
0.09039138890724112,1.5593208350670942,-2.897378002750647
0.09100214153499275,1.5594699515164712,-2.912665181586552
0.09161289416274439,1.5596227595807683,-2.927673925408882
0.09222364679049602,1.5597792168890998,-2.942410790008006
0.09283439941824764,1.559939271696799,-2.956882485359323
0.09344515204599926,1.5601028631151364,-2.971095855022342
0.0940559046737509,1.5602699213568187,-2.9850578554652447
0.09466665730150253,1.560440367996515,-2.9987755353632006
0.09527740992925417,1.560614116245737,-3.0122560149161703
0.09588816255700579,1.5607910712412312,-3.0255064652355665
0.09649891518475741,1.560971130346194,-3.038534087844695
0.09710966781250904,1.5611541834634812,-3.051346094340265
0.09772042044026068,1.561340113360022,-3.063949686260946
0.09833117306801231,1.5615287960016344,-3.076352035207333
0.09894192569576393,1.5617201008974058,-3.088560263259231
0.09955267832351557,1.561913891452822,-3.100581423732854
0.10016343095126719,1.5621100253308113,-3.1124224823206514
0.10077418357901882,1.5623083548198267,-3.1240902986564443
0.10138493620677044,1.5625087272081135,-3.1355916083461643
0.10199568883452208,1.562710985163364,-3.1469330055028073
0.10260644146227371,1.5629149671168123,-3.158120925824309
0.10321719409002535,1.5631205076509518,-3.1691616302521615
0.10382794671777695,1.5633274378900244,-3.1800611892429513
0.10443869934552859,1.5635355858923676,-3.1908254676897423
0.10504945197328022,1.5637447770438189,-3.201460110522475
0.10566020460103186,1.563954834451284,-3.2119705290187257
0.10627095722878349,1.5641655793356126,-3.2223618878531637
0.10688170985653511,1.564376831423003,-3.2326390929102553
0.10749246248428675,1.564588409334027,-3.2428067798864175
0.10810321511203837,1.5648001309695025,-3.2528693037019933
0.10871396773979,1.5650118138924192,-3.2628307287437432
0.10932472036754162,1.565223275705094,-3.2726948199547414
0.10993547299529326,1.5654343344207988,-3.2824650347882747
0.11054622562304489,1.5656448088291486,-3.2921445160356972
0.11115697825079653,1.5658545188544384,-3.3017360855433258
0.11176773087854816,1.5660632859063017,-3.3112422388220173
0.11237848350629977,1.5662709332219713,-3.3206651405573004
0.1129892361340514,1.5664772861994887,-3.3300066210239296
0.11359998876180304,1.5666821727212306,-3.3392681734031715
0.11421074138955467,1.5668854234671843,-3.3484509520036796
0.11482149401730629,1.567086872217348,-3.357555771380413
0.11543224664505793,1.5672863561428017,-3.3665831063449296
0.11604299927280955,1.5674837160848598,-3.3755330928591234
0.11665375190056118,1.5676787968219341,-3.3844055297988196
0.1172645045283128,1.5678714473235675,-3.393199881577851
0.11787525715606444,1.5680615209913706,-3.401915281610689
0.11848600978381607,1.5682488758864173,-3.410550536601319
0.1190967624115677,1.568433374942799,-3.4191041316345427
0.11970751503931934,1.568614886167121,-3.4275742360478976
0.12031826766707095,1.5687932828236169,-3.4359587100618194
0.12092902029482258,1.5689684436047429,-3.4442551121404317
0.12153977292257422,1.569140252787113,-3.4524607070538345
0.12215052555032585,1.569308600372589,-3.4605724746165523
0.12276127817807747,1.569473382214511,-3.4685871190664495
0.1233720308058291,1.5696345001290297,-3.4765010790545805
0.12398278343358073,1.5697918619915074,-3.484310538211623
0.12459353606133236,1.5699453818180522,-3.4920114362557806
0.125204288689084,1.5700949798322974,-3.499599480605809
0.1258150413168356,1.5702405825174799,-3.507070158463277
0.12642579394458725,1.570382122654021,-3.5144187493264187
0.12703654657233887,1.5705195393428018,-3.5216403378957364
0.12764729920009052,1.570652778014315,-3.52872982733468
0.12825805182784214,1.5707817904239798,-3.5356819528457604
0.12886880445559376,1.5709065346339266,-3.542491295521193
0.1294795570833454,1.5710269749815078,-3.5491522964314943
0.13009030971109703,1.5711430820349481,-3.5556592709090684
0.13070106233884865,1.5712548325364593,-3.562006422990895
0.13131181496660027,1.571362209333235,-3.5681878599797683
0.13192256759435192,1.5714652012967416,-3.5741976070841313
0.13253332022210354,1.5715638032307269,-3.5800296221022694
0.1331440728498552,1.5716580157684616,-3.585677810108543
0.13375482547760678,1.571747845259612,-3.591136038108815
0.13436557810535843,1.571833303647283,-3.596398149627919
0.13497633073311005,1.5719144083357592,-3.6014579791920043
0.1355870833608617,1.5719911820493735,-3.6063093666765207
0.13619783598861332,1.572063652683128,-3.610946171482331
0.13680858861636494,1.5721318531455528,-3.61536228650909
0.13741934124411656,1.572195821194313,-3.6195516518988557
0.13803009387186818,1.5722555992651819,-3.623508268515681
0.13864084649961983,1.5723112342948562,-3.6272262111363833
0.13925159912737145,1.5723627775381916,-3.63069964132572
0.1398623517551231,1.5724102843804126,-3.633922819968876
0.14047310438287472,1.5724538141448021,-3.636890119440202
0.14108385701062634,1.572493429896444,-3.639596035384233
0.141694609638378,1.5725291982425411,-3.6420351980882777
0.1423053622661296,1.5725611891298117,-3.6442023834291146
0.14291611489388123,1.57258947563952,-3.646092523373005
0.14352686752163288,1.5726141337806032,-3.647700716016844
0.1441376201493845,1.572635242281437,-3.6490222351513646
0.14474837277713615,1.572652882380685,-3.650052539337151
0.14535912540488774,1.5726671376177148,-3.6507872804794954
0.14596987803263936,1.572678093623067,-3.6512223118919143
0.146580630660391,1.5726858379093842,-3.6513536958406583
0.14719138328814263,1.5726904596632316,-3.651177710562544
0.14780213591589428,1.5726920495382526,-3.6506908567491383
0.1484128885436459,1.5726906994500331,-3.649889863493833
0.14902364117139752,1.5726865023730612,-3.648771693697683
0.14963439379914917,1.5726795521401427,-3.647333548933221
0.1502451464269008,1.5726699432446285,-3.6455728737631845
0.15085589905465244,1.5726577706457845,-3.6434873595172927
0.15146665168240406,1.5726431295776029,-3.641074947526267
0.15207740431015568,1.5726261153613637,-3.638333831817389
0.15268815693790733,1.5726068232222288,-3.635262461273982
0.15329890956565892,1.5725853481101089,-3.631859541264498
0.15390966219341054,1.5725617845250721,-3.6281240347465955
0.1545204148211622,1.5725362263474945,-3.62405516285311
0.1551311674489138,1.5725087666731992,-3.6196524049653274
0.15574192007666546,1.5724794976537353,-3.6149154982853875
0.15635267270441708,1.572448510341998,-3.609844436914056
0.1569634253321687,1.572415894543357,-3.6044394704444684
0.15757417795992035,1.5723817386724113,-3.5987011020829742
0.15818493058767197,1.5723461296155423,-3.5926300863061824
0.15879568321542362,1.5723091525993307,-3.586227426069254
0.15940643584317524,1.5722708910649814,-3.5794943695741632
0.16001718847092686,1.5722314265488189,-3.572432406613203
0.1606279410986785,1.5721908385689412,-3.565043264499465
0.1612386937264301,1.5721492045180772,-3.5573289035991396
0.16184944635418172,1.5721065995627044,-3.549291512479294
0.16246019898193337,1.572063096548473,-3.540933502685026
0.163070951609685,1.5720187659119285,-3.532257503162685
0.16368170423743664,1.5719736755985818,-3.523266354341229
0.16429245686518826,1.5719278909873178,-3.5139631018902664
0.16490320949293988,1.571881474821089,-3.5043509901699568
0.16551396212069153,1.5718344871439593,-3.494433455385328
0.16612471474844315,1.5717869852443942,-3.4842141184667725
0.1667354673761948,1.571739023604794,-3.4736967776881076
0.16734622000394642,1.5716906538572064,-3.4628854010412433
0.16795697263169804,1.571641924745196,-3.451784118383324
0.16856772525944969,1.5715928820917493,-3.440397213373109
0.16917847788720128,1.5715435687732058,-3.428729115213409
0.16978923051495293,1.5714940246990843,-3.4167843902156756
0.17039998314270455,1.571444286797746,-3.404567733206283
0.17101073577045617,1.5713943890078066,-3.3920839587869067
0.17162148839820782,1.5713443622751557,-3.379337992470288
0.17223224102595944,1.5712942345555367,-3.36633486170569
0.17284299365371106,1.5712440308225286,-3.353079686811588
0.1734537462814627,1.5711937730808168,-3.339577671833328
0.17406449890921433,1.5711434803846651,-3.3258340953397165
0.17467525153696598,1.571093168861397,-3.3118543011801753
0.1752860041647176,1.5710428517398285,-3.297643689212017
0.17589675679246922,1.5709925393834374,-3.2832077060212024
0.17650750942022086,1.5709422393281787,-3.268551835648222
0.17711826204797246,1.5708919563247834,-3.2536815903365466
0.1777290146757241,1.5708416923853683,-3.2386025013208464
0.17833976730347573,1.5707914468342403,-3.2233201096668096
0.17895051993122735,1.5707412163626948,-3.2078399571834
0.179561272558979,1.570690995087671,-3.192167577417816
0.18017202518673062,1.5706407746140985,-3.1763084867506763
0.18078277781448224,1.5705905441007417,-3.1602681756051134
0.18139353044223389,1.5705402903293926,-3.144052099785047
0.1820042830699855,1.5704899977772433,-3.1276656719545524
0.18261503569773715,1.5704396486922325,-3.111114253273934
0.18322578832548878,1.5703892231712069,-3.094403145204608
0.1838365409532404,1.5703386992407256,-3.077537581496032
0.18444729358099204,1.5702880529402983,-3.060522720366663
0.18505804620874364,1.5702372584078965,-3.043363636890763
0.18566879883649529,1.5701862879675517,-3.026065315603433
0.1862795514642469,1.5701351122188385,-3.0086326433329442
0.18689030409199853,1.5700837001280719,-2.9910704022743793
0.18750105671975018,1.5700320191210366,-2.9733832633092883
0.1881118093475018,1.5699800351770496,-2.95557577958562
0.18872256197525342,1.569927712924176,-2.9376523803646157
0.18933331460300507,1.5698750157354167,-2.9196173651428667
0.18994406723075669,1.5698219058256884,-2.9014748980570424
0.19055481985850833,1.5697683443493962,-2.883229002581234
0.19116557248625995,1.5697142914984445,-2.864883556517583
0.19177632511401158,1.5696597066004832,-2.846442287293005
0.19238707774176322,1.5696045482172318,-2.827908767561893
0.19299783036951482,1.5695487742426926,-2.809286411122409
0.19360858299726647,1.5694923420010962,-2.790578469149182
0.19421933562501809,1.5694352083444052,-2.771788026745612
0.1948300882527697,1.5693773297492053,-2.752917999820214
0.19544084088052135,1.5693186624128423,-2.7339711322858014
0.19605159350827298,1.569259162348626,-2.714949993587131
0.19666234613602462,1.5691987854799667,-2.6958569765536957
0.19727309876377624,1.5691374877332904,-2.6766942955808966
0.19788385139152787,1.5690752251295859,-2.6574639851379787
0.1984946040192795,1.5690119538744602,-2.638167898599991
0.19910535664703113,1.5689476304465453,-2.61880770740672
0.19971610927478275,1.5688822116841576,-2.5993849005402314
0.20032686190253438,1.568815654870079,-2.579900784322575
0.200937614530286,1.5687479178143213,-2.560356482529524
0.20154836715803764,1.5686789589348105,-2.5407529368138766
0.20215911978578927,1.5686087373358408,-2.5210909074375327
0.20276987241354089,1.5685372128842394,-2.501370974303433
0.20338062504129253,1.5684643462831203,-2.4815935382849656
0.20399137766904415,1.568390099143169,-2.4617588228457556
0.2046021302967958,1.5683144340513655,-2.441866875942168
0.20521288292454742,1.5682373146370723,-2.4219175722038098
0.20582363555229904,1.5681587056354387,-2.4019106153824423
0.2064343881800507,1.5680785729480444,-2.381845541064934
0.2070451408078023,1.5679968837007467,-2.3617217196379388
0.2076558934355539,1.5679136062986767,-2.341538359499559
0.20826664606330555,1.567828710478343,-2.3212945105087837
