frequency,refractiveIndex,absorption
0.0006107526277516292,1.9490271330708393,0.004097577752956551
0.0012215052555032584,1.9468522467747649,0.016290864089648617
0.0018322578832548875,1.9432836771266038,0.03628723832678891
0.002443010511006517,1.9384024125115897,0.06361744349270097
0.003053763138758146,1.932315472025332,0.09766118658544434
0.003664515766509775,1.9251503587685175,0.13767922477001726
0.004275268394261404,1.9170489333480873,0.18284896136970155
0.004886021022013034,1.9081612223780176,0.23230060968773947
0.005496773649764663,1.8986396016946763,0.2851513718354731
0.006107526277516292,1.888633680391832,0.340535693210151
0.006718278905267922,1.8782860858091026,0.39763035088374016
0.00732903153301955,1.8677292324842971,0.4556737993897631
0.00793978416077118,1.8570830630593151,0.5139797540328488
0.008550536788522809,1.8464536815095953,0.5719454052301799
0.009161289416274438,1.83593275806374,0.629054925600247
0.009772042044026067,1.82559756641951,0.6848790729623018
0.010382794671777697,1.8155115116086245,0.7390717345259066
0.010993547299529326,1.805725015546675,0.7913642287356117
0.011604299927280955,1.7962766423246797,0.8415581064340257
0.012215052555032585,1.7871943632591034,0.8895170920615378
0.012825805182784214,1.7784968803263372,0.93515869331427
0.013436557810535843,1.7701949444384264,0.9784458945678822
0.014047310438287471,1.7622926212490588,1.0193792426426986
0.0146580630660391,1.7547884713896849,1.057989537783554
0.015268815693790731,1.7476766240561203,1.0943312607366933
0.01587956832154236,1.7409477326893066,1.1284767996543377
0.01649032094929399,1.7345898092226937,1.1605114881668073
0.017101073577045618,1.7285889391810594,1.190529427346846
0.01771182620479725,1.722929884039501,1.2186300378505306
0.018322578832548876,1.7175965799437531,1.2449152723079868
0.018933331460300507,1.712572543418745,1.2694874099970999
0.019544084088052135,1.7078411953082644,1.2924473539802621
0.020154836715803762,1.7033861141293207,1.3138933534339008
0.020765589343555393,1.6991912294946678,1.3339200793418236
0.02137634197130702,1.6952409654249485,1.352617988842994
0.021987094599058652,1.691520342372548,1.3700729214020024
0.02259784722681028,1.6880150457131953,1.3863658779415375
0.02320859985456191,1.6847114674010373,1.401572941697472
0.023819352482313542,1.6815967264766096,1.4157653065563458
0.02443010511006517,1.6786586731941868,1.4290093848697272
0.025040857737816797,1.6758858807105754,1.4413669721625706
0.025651610365568428,1.6732676275562954,1.4528954507746998
0.026262362993320056,1.6707938734904824,1.4636480183506184
0.026873115621071687,1.6684552308159726,1.4736739302953092
0.027483868248823314,1.6662429327923263,1.4830187479246404
0.028094620876574942,1.6641488004219145,1.4917245861450477
0.028705373504326573,1.6621652085875334,1.4998303561730113
0.0293161261320782,1.6602850522796486,1.5073720001270026
0.029926878759829835,1.658501713458488,1.5143827153542844
0.030537631387581463,1.6568090289427126,1.5208931671466543
0.03114838401533309,1.655201259595543,1.5269316891020872
0.03175913664308472,1.6536730609848427,1.53252447083876
0.03236988927083635,1.6522194556209617,1.537695733098624
0.03298064189858798,1.6508358068206697,1.542467890514375
0.03359139452633961,1.6495177942039563,1.5468617024778555
0.034202147154091235,1.6482613907998402,1.5508964126555482
0.03481289978184286,1.6470628417153705,1.5545898777642988
0.0354236524095945,1.6459186443067833,1.5579586862530135
0.036034405037346125,1.6448255297817396,1.5610182675483388
0.03664515766509775,1.643780446155582,1.5637829925157365
0.03725591029284938,1.6427805424815582,1.5662662657692956
0.037866662920601014,1.6418231542742532,1.5684806104384093
0.038477415548352635,1.6409057900464108,1.5704377459671464
0.03908816817610427,1.6400261188814553,1.5721486594889467
0.039698920803855904,1.6391819589670051,1.5736236712830634
0.040309673431607525,1.6383712670181554,1.574872494783696
0.04092042605935916,1.6375921285231552,1.5759042915773949
0.04153117868711079,1.6368427487480977,1.5767277217907087
0.04214193131486242,1.6361214444412817,1.577350990237277
0.04275268394261404,1.635426636181934,1.57778188866366
0.04336343657036568,1.6347568413218534,1.5780278344040701
0.043974189198117304,1.6341106674723067,1.5780959057284791
0.04458494182586893,1.6334868064920771,1.5779928741433398
0.04519569445362056,1.632884028935956,1.5777252338823677
0.045806447081372194,1.6323011789261292,1.5772992288038534
0.04641719970912382,1.631737169411905,1.576720876892245
0.04702795233687545,1.6311909777859792,1.5759959925449092
0.047638704964627084,1.630661641828024,1.5751302068090098
0.048249457592378704,1.630148255948759,1.5741289857197207
0.04886021022013034,1.6296499677098633,1.5729976468782394
0.049470962847881966,1.6291659745971303,1.5717413743961708
0.050081715475633594,1.628695521026118,1.5703652323231672
0.05069246810338522,1.6282378955612897,1.5688741766645815
0.051303220731136856,1.6277924283312089,1.5672730660881324
0.05191397335888848,1.6273584886237953,1.5655666714106218
0.05252472598664011,1.6269354826470201,1.56375968394896
0.053135478614391746,1.626522851441588,1.5618567228140237
0.05374623124214337,1.6261200689333253,1.5598623412196226
0.054356983869895,1.6257266401139836,1.5577810318747551
0.05496773649764663,1.625342099340148,1.555617231522252
0.05557848912539826,1.6249660087407674,1.5533753246831743
0.056189241753149884,1.6245979567246416,1.5510596466627415
0.05679999438090152,1.6242375565799267,1.548674485870111
0.057410747008653146,1.623884445158374,1.5462240855017066
0.05802149963640477,1.6235382816376294,1.5437126446347564
0.0586322522641564,1.6231987463555084,1.5411443187756617
0.059243004891908035,1.6228655397106309,1.5385232199051955
0.05985375751965967,1.622538381124315,1.535853416060922
0.06046451014741129,1.6222170080590306,1.533138930495114
0.061075262775162925,1.6219011750891341,1.5303837404448288
0.06168601540291455,1.62159065301995,1.527591775549065
0.06229676803066618,1.621285228051613,1.5247669159469865
0.0629075206584178,1.620984700984389,1.5219129900888198
0.06351827328616944,1.6206888864624698,1.519033772291043
0.06412902591392107,1.620397612253501,1.5161329800650578
0.0647397785416727,1.620110718561326,1.5132142712478804
0.06535053116942433,1.6198280573696764,1.5102812409629176
0.06596128379717596,1.619549491814704,1.507337418436232
0.0665720364249276,1.6192748955844445,1.5043862636944874
0.06718278905267921,1.619004152343493,1.5014311641684706
0.06779354168043085,1.6187371551812813,1.4984754312257413
0.06840429430818247,1.618473806082526,1.4955222966548285
0.06901504693593409,1.6182140154185336,1.4925749091225295
0.06962579956368573,1.6179577014581519,1.48963633062508
0.07023655219143736,1.6177047898972863,1.4867095329527624
0.070847304819189,1.6174552134059859,1.4837973941870783
0.07145805744694061,1.6172089111921952,1.480902695248489
0.07206881007469225,1.6169658285813557,1.4780281165120053
0.07267956270244387,1.6167259166111076,1.4751762345070232
0.0732903153301955,1.6164891316404206,1.4723495187170914
0.07390106795794714,1.616255434972536,1.4695503284944302
0.07451182058569876,1.6160247924911617,1.4667809101032832
0.0751225732134504,1.6157971743094157,1.4640433939054984
0.07573332584120203,1.6155725544310682,1.461339791700505
0.07634407846895366,1.6153509104236483,1.45867199423217
0.07695483109670527,1.6151322231030574,1.4560417688728313
0.0775655837244569,1.6149164762293344,1.453450757495385
0.07817633635220854,1.614703656213271,1.450900474542891
0.07878708897996017,1.6144937518335956,1.4483923053045105
0.07939784160771181,1.6142867539644632,1.4459275044061943
0.08000859423546343,1.614082655313033,1.4435071945234499
0.08061934686321505,1.6138814501669159,1.4411323653233603
0.08123009949096668,1.613683134151305,1.4388038726416936
0.08184085211871832,1.6134877039956175,1.4365224379009265
0.08245160474646994,1.6132951573094894,1.4342886477738634
0.08306235737422157,1.6131054923679773,1.4321029540973136
0.08367311000197321,1.6129187079058438,1.4299656740391364
0.08428386262972484,1.6127348029208064,1.4278769905219229
0.08489461525747646,1.6125537764856306,1.4258369529053523
0.08550536788522808,1.612375627568985,1.4238454779291714
0.08611612051297972,1.6122003548649448,1.4219023509175637
0.08672687314073135,1.6120279566310753,1.4200072272458033
0.08733762576848299,1.6118584305350077,1.4181596340684206
0.08794837839623461,1.6116917735094287,1.41635897230869
0.08855913102398623,1.6115279816154189,1.414604518907535
0.08916988365173786,1.6113670499140702,1.4128954293300122
0.0897806362794895,1.6112089723463128,1.411230740326831
0.09039138890724112,1.6110537416208928,1.409609372947235
0.09100214153499275,1.6109013491104323,1.4080301357998117
0.09161289416274439,1.6107517847555182,1.4064917285562555
0.09222364679049602,1.6106050369767444,1.404992745693201
0.09283439941824764,1.6104610925946565,1.4035316804663147
0.09344515204599926,1.6103199367575232,1.4021069291100863
0.0940559046737509,1.6101815528768728,1.4007167952564399
0.09466665730150253,1.6100459225707238,1.3993594945646854
0.09527740992925417,1.6099130256144343,1.3980331595539681
0.09588816255700579,1.6097828398990908,1.3967358446301623
0.09649891518475741,1.6096553413973613,1.3954655312972122
0.09710966781250904,1.609530504136717,1.3942201335430373
0.09772042044026068,1.6094083001799337,1.3929975033892927
0.09833117306801231,1.609288699612777,1.3917954365941103
0.09894192569576393,1.6091716705387573,1.3906116784955826
0.09955267832351557,1.6090571790808534,1.3894439299840933
0.10016343095126719,1.6089451893900746,1.3882898535906807
0.10077418357901882,1.6088356636607368,1.387147079677742
0.10138493620677044,1.6087285621523224,1.3860132127189202
0.10199568883452208,1.6086238432177677,1.3848858376533884
0.10260644146227371,1.608521463338034,1.3837625263002664
0.10321719409002535,1.6084213771627955,1.382640843818094
0.10382794671777695,1.6083235375570697,1.381518355193707
0.10443869934552859,1.608227895653617,1.3803926317452735
0.10504945197328022,1.6081344009109035,1.3792612576232857
0.10566020460103186,1.608043001176441,1.3781218362931924
0.10627095722878349,1.607953642755284,1.3769719969835672
0.10688170985653511,1.6078662704834645,1.3758094010832242
0.10749246248428675,1.6077808278061347,1.3746317484704684
0.10810321511203837,1.60769725686018,1.3734367837580301
0.10871396773979,1.607615498561046,1.3722223024371327
0.10932472036754162,1.607535492693533,1.370986156903603
0.10993547299529326,1.6074571780062763,1.3697262623504332
0.11054622562304489,1.6073804923096502,1.368440602509607
0.11115697825079653,1.6073053725768043,1.367127235227709
0.11176773087854816,1.6072317550475448,1.3657842978595927
0.11237848350629977,1.6071595753347638,1.3644100124642764
0.1129892361340514,1.6070887685331143,1.3630026907885426
0.11359998876180304,1.6070192693296148,1.361560739023555
0.11421074138955467,1.6069510121158852,1.3600826623203859
0.11482149401730629,1.6068839311016778,1.3585670690513654
0.11543224664505793,1.6068179604293993,1.357012674804076
0.11604299927280955,1.6067530342892924,1.355418306096316
0.11665375190056118,1.6066890870349526,1.3537829038004743
0.1172645045283128,1.6066260532988634,1.3521055262667852
0.11787525715606444,1.6065638681076149,1.350385352135892
0.11848600978381607,1.6065024669964942,1.3486216828316444
0.1190967624115677,1.6064417861231188,1.3468139447266663
0.11970751503931934,1.6063817623798042,1.3449616909730449
0.12031826766707095,1.6063223335043477,1.3430646029930424
0.12092902029482258,1.6062634381889254,1.3411224916239899
0.12153977292257422,1.606205016186803,1.339135297914251
0.12215052555032585,1.6061470084165628,1.3371030935668387
0.12276127817807747,1.60608935706357,1.3350260810290824
0.1233720308058291,1.606032005678397,1.3329045932278416
0.12398278343358073,1.605974899271947,1.3307390929504377
0.12459353606133236,1.6059179844070164,1.328530171872716
0.125204288689084,1.6058612092860596,1.3262785492372315
0.1258150413168356,1.605804523834927,1.3239850701847746
0.12642579394458725,1.6057478797823548,1.3216507037442482
0.12703654657233887,1.6056912307350117,1.3192765404864877
0.12764729920009052,1.6056345322479115,1.3168637898491053
0.12825805182784214,1.605577741890018,1.3144137771398505
0.12886880445559376,1.6055208193048893,1.3119279402275759
0.1294795570833454,1.6054637262662192,1.309407825930295
0.13009030971109703,1.6054064267281494,1.306855086111197
0.13070106233884865,1.605348886870248,1.3042714734939909
0.13131181496660027,1.60529107513706,1.301658837209776
0.13192256759435192,1.6052329622721602,1.2990191180889432
0.13253332022210354,1.6051745213466448,1.296354343711279
0.1331440728498552,1.6051157277820285,1.2936666232294216
0.13375482547760678,1.6050565593675181,1.290958141980334
0.13436557810535843,1.6049969962716597,1.288231155900405
0.13497633073311005,1.6049370210483658,1.2854879857608266
0.1355870833608617,1.604876618637351,1.2827310112390813
0.13619783598861332,1.6048157763590192,1.279962664844305
0.13680858861636494,1.6047544839038548,1.2771854257131972
0.13741934124411656,1.604692733316394,1.2744018132945407
0.13803009387186818,1.6046305189738632,1.2716143809396954
0.13864084649961983,1.6045678375595847,1.2688257094173232
0.13925159912737145,1.6045046880312634,1.266038400370106
0.1398623517551231,1.6044410715842803,1.2632550697318399
0.14047310438287472,1.6043769916101382,1.2604783411224312
0.14108385701062634,1.6043124536502027,1.2577108392393213
0.141694609638378,1.6042474653449055,1.25495518326273
0.1423053622661296,1.6041820363785815,1.2522139802926242
0.14291611489388123,1.604116178420116,1.2494898188344996
0.14352686752163288,1.6040499050596004,1.2467852623517781
0.1441376201493845,1.6039832317411848,1.244102842900752
0.14474837277713615,1.6039161756923386,1.2414450548652252
0.14535912540488774,1.6038487558497305,1.2388143488067211
0.14596987803263936,1.6037809927819389,1.2362131254456943
0.146580630660391,1.603712908609223,1.2336437297890648
0.14719138328814263,1.603644526920574,1.2311084454188375
0.14780213591589428,1.6035758726882772,1.2286094889555195
0.1484128885436459,1.6035069721802233,1.2261490047103132
0.14902364117139752,1.6034378528701927,1.2237290595387074
0.14963439379914917,1.6033685433463611,1.2213516379080898
0.1502451464269008,1.6032990732182517,1.219018637190782
0.15085589905465244,1.6032294730223797,1.2167318631937734
0.15146665168240406,1.603159774126823,1.214493025935627
0.15207740431015568,1.6030900086349533,1.2123037356799944
0.15268815693790733,1.6030202092885653,1.2101654992348903
0.15329890956565892,1.6029504093706317,1.2080797165262833
0.15390966219341054,1.6028806426079218,1.2060476774531692
0.1545204148211622,1.602810943073704,1.2040705590314658
0.1551311674489138,1.6027413450907588,1.2021494228324858
0.15574192007666546,1.6026718831349227,1.2002852127219061
0.15635267270441708,1.6026025917393802,1.1984787529034162
0.1569634253321687,1.6025335053999135,1.1967307462715815
0.15757417795992035,1.602464658481319,1.1950417730766902
0.15818493058767197,1.6023960851251913,1.193412289904448
0.15879568321542362,1.6023278191592734,1.1918426289721527
0.15940643584317524,1.6022598940085604,1.1903329977425645
0.16001718847092686,1.6021923426083469,1.1888834788554599
0.1606279410986785,1.6021251973193915,1.1874940303770134
0.1612386937264301,1.6020584898453791,1.1861644863656269
0.16184944635418172,1.6019922511528373,1.184894557752286
0.16246019898193337,1.6019265113936758,1.1836838335332804
0.163070951609685,1.601861299830496,1.1825317822717745
0.16368170423743664,1.6017966447648182,1.1814377539045422
0.16429245686518826,1.601732573468366,1.180400981849293
0.16490320949293988,1.6016691121175344,1.1794205854070992
0.16551396212069153,1.6016062857311721,1.1784955724543582
0.16612471474844315,1.6015441181117904,1.1776248424175582
0.1667354673761948,1.6014826317903035,1.176807189523495
0.16734622000394642,1.601421847974407,1.1760413063173643
0.16795697263169804,1.6013617865006837,1.1753257874401086
0.16856772525944969,1.60130246579052,1.1746591336559475
0.16917847788720128,1.6012439028099075,1.1740397561204368
0.16978923051495293,1.6011861130332048,1.173465980878834
0.17039998314270455,1.601129110410909,1.1729360535838442
0.17101073577045617,1.6010729073414918,1.1724481444215156
0.17162148839820782,1.6010175146473444,1.1720003532333174
0.17223224102595944,1.6009629415548599,1.1715907148219296
0.17284299365371106,1.6009091956786787,1.1712172044279303
0.1734537462814627,1.6008562830101154,1.170877743364036
0.17406449890921433,1.6008042079097675,1.1705702047929423
0.17467525153696598,1.6007529731043109,1.1702924196347386
0.1752860041647176,1.6007025796874623,1.1700421825889633
0.17589675679246922,1.6006530271250967,1.1698172582567314
0.17650750942022086,1.6006043132644805,1.1696153873472048
0.17711826204797246,1.6005564343475889,1.1694342929530195
0.1777290146757241,1.6005093850284557,1.1692716868787418
0.17833976730347573,1.6004631583945002,1.169125276006097
0.17895051993122735,1.600417745991761,1.168992768679861
0.179561272558979,1.6003731378539676,1.168871881097718
0.18017202518673062,1.6003293225353599,1.1687603436875516
0.18078277781448224,1.6002862871471653,1.1686559074556213
0.18139353044223389,1.6002440173976327,1.168556350288548
0.1820042830699855,1.6002024976355107,1.1684594831928394
0.18261503569773715,1.600161710896852,1.1683631564549797
0.18322578832548878,1.6001216389550181,1.1682652657055252
0.1838365409532404,1.6000822623737518,1.1681637578709394
0.18444729358099204,1.6000435605631682,1.1680566369968173
0.18505804620874364,1.600005511838525,1.1679419699266316
0.18566879883649529,1.5999680934816027,1.1678178918199393
0.1862795514642469,1.5999312818045452,1.1676826114952275
0.18689030409199853,1.5998950522159772,1.1675344165819521
0.18750105671975018,1.5998593792892342,1.1673716784674484
0.1881118093475018,1.5998242368325162,1.1671928570244587
0.18872256197525342,1.5997895979607795,1.166996505106048
0.18933331460300507,1.599755435169182,1.1667812727944793
0.18994406723075669,1.5997217204078764,1.1665459113922507
0.19055481985850833,1.5996884251579602,1.1662892771429876
0.19116557248625995,1.5996555205083791,1.1660103346718096
0.19177632511401158,1.5996229772335746,1.1657081601344563
0.19238707774176322,1.5995907658716777,1.1653819440659356
0.19299783036951482,1.599558856803031,1.165030993920166
0.19360858299726647,1.5995272203288389,1.1646547362925206
0.19421933562501809,1.5994958267497321,1.164252718818578
0.1948300882527697,1.5994646464440405,1.1638246117432045
0.19544084088052135,1.599433649945566,1.1633702091545803
0.19605159350827298,1.5994028080206475,1.1628894298793335
0.19666234613602462,1.599372091744324,1.1623823180356294
0.19727309876377624,1.5993414725753785,1.1618490432419355
0.19788385139152787,1.5993109224300868,1.1612899004805488
0.1984946040192795,1.5992804137544594,1.1607053096155815
0.19910535664703113,1.599249919594803,1.1600958145663036
0.19971610927478275,1.5992194136664097,1.1594620821379384
0.20032686190253438,1.599188870420204,1.1588049005125902
0.200937614530286,1.5991582651071719,1.1581251774042391
0.20154836715803764,1.5991275738404125,1.1574239378828821
0.20215911978578927,1.5990967736546557,1.1567023218733963
0.20276987241354089,1.599065842563099,1.1559615813362234
0.20338062504129253,1.5990347596114196,1.1552030771373858
0.20399137766904415,1.5990035049288378,1.154428275616639
0.2046021302967958,1.598972059776105,1.1536387448632581
0.20521288292454742,1.598940406590307,1.1528361507095752
0.20582363555229904,1.5989085290263771,1.152022252453951
0.2064343881800507,1.5988764119952321,1.1511988983245156
0.2070451408078023,1.5988440416984429,1.1503680206967783
0.2076558934355539,1.5988114056593719,1.149531631078179
0.20826664606330555,1.5987784927507158,1.148691814873664
0.20887739869105718,1.5987452932184005,1.1478507259468216
0.20948815131880882,1.5987117987017914,1.1470105809916353
0.21009890394656044,1.598678002250189,1.14617365373044
0.21070965657431207,1.5986438983355906,1.1453422689540416
0.2113204092020637,1.5986094828617117,1.1445187964204886
