frequency,refractiveIndex,absorption
0.0006107526277516292,1.984678599798952,0.0010605047541934669
0.0012215052555032584,1.9844887597672554,0.0042399639412157636
0.0018322578832548875,1.9841727317683937,0.00953222207812965
0.002443010511006517,1.9837310721654695,0.01692705241841354
0.003053763138758146,1.9831645564468847,0.026410205234802638
0.003664515766509775,1.9824741758428903,0.03796347481057054
0.004275268394261404,1.9816611330269613,0.05156478454544403
0.004886021022013034,1.9807268369395064,0.06718828942797117
0.005496773649764663,1.9796728967786121,0.08480449498283343
0.006107526277516292,1.9785011152090088,0.10438039167103451
0.006718278905267922,1.9772134808461936,0.12587960360494976
0.00732903153301955,1.9758121600775707,0.1492625503402019
0.00793978416077118,1.9742994882864582,0.1744866204228109
0.008550536788522809,1.9726779605481666,0.2015063553044874
0.009161289416274438,1.9709502218693744,0.23027364219054658
0.009772042044026067,1.969119057043569,0.26073791435482213
0.010382794671777697,1.9671873801957473,0.29284635744258547
0.010993547299529326,1.9651582240891339,0.3265441202863275
0.011604299927280955,1.963034729265616,0.36177452877858696
0.012215052555032585,1.9608201330897257,0.3984793013801834
0.012825805182784214,1.958517758763256,0.43659876488945015
0.013436557810535843,1.9561310043747522,0.4760720691575678
0.014047310438287471,1.9536633320442254,0.51683739950477
0.0146580630660391,1.9511182572195693,0.5588321856705313
0.015268815693790731,1.9484993381767044,0.601993306216532
0.01587956832154236,1.945810165770764,0.6462572873919192
0.01649032094929399,1.9430543534811486,0.6915604955660444
0.017101073577045618,1.9402355277879457,0.7378393224303785
0.01771182620479725,1.9373573189127697,0.7850303622706569
0.018322578832548876,1.9344233519519054,0.8330705807079208
0.018933331460300507,1.9314372384251246,0.8818974744044442
0.019544084088052135,1.928402568258777,0.9314492213245354
0.020154836715803762,1.9253229022175562,0.9816648212317673
0.020765589343555393,1.9222017647950953,1.032484226191158
0.02137634197130702,1.9190426375696428,1.0838484609270627
0.021987094599058652,1.9158489530275944,1.1356997329653553
0.02259784722681028,1.912624088854235,1.187981532560097
0.02320859985456191,1.9093713626881061,1.2406387224710742
0.023819352482313542,1.9060940273327633,1.293617617719224
0.02443010511006517,1.9027952664172,1.3468660555012688
0.025040857737816797,1.8994781904943199,1.4003334554939162
0.025651610365568428,1.896145833564797,1.453970870820308
0.026262362993320056,1.8928011500124642,1.5077310299903237
0.026873115621071687,1.8894470119357905,1.5615683701565743
0.027483868248823314,1.8860862068592787,1.6154390620570347
0.028094620876574942,1.882721435807682,1.6693010270362914
0.028705373504326573,1.8793553117254387,1.7231139465558187
0.0293161261320782,1.8759903582232609,1.7768392646173645
0.029926878759829835,1.8726290086337798,1.8304401835335966
0.030537631387581463,1.8692736053579082,1.8838816534860976
0.03114838401533309,1.8659263994837563,1.9371303563143978
0.03175913664308472,1.8625895506601922,1.9901546839798248
0.03236988927083635,1.8592651272072904,2.0429247121452154
0.03298064189858798,1.8559551064464814,2.0954121693073957
0.03359139452633961,1.8526613752335517,2.147590401911988
0.034202147154091235,1.8493857306782169,2.199434335871524
0.03481289978184286,1.8461298810345894,2.250920434897688
0.0354236524095945,1.8428954467474103,2.3020266560463196
0.036034405037346125,1.8396839616396403,2.3527324028615912
0.03664515766509775,1.8364968742275893,2.40301847649082
0.03725591029284938,1.8333355491504961,2.452867025127432
0.037866662920601014,1.8302012687021165,2.5022614921232
0.038477415548352635,1.8270952344525664,2.551186563095131
0.03908816817610427,1.824018568949378,2.5996281123358
0.039698920803855904,1.8209723174873143,2.647573148818432
0.040309673431607525,1.8179574499372575,2.695009762071507
0.04092042605935916,1.814974862625004,2.741927068179434
0.04153117868711079,1.8120253802515291,2.7883151561493427
0.04214193131486242,1.809109757846806,2.8341650348658884
0.04275268394261404,1.8062286827499143,2.879468580839137
0.04336343657036568,1.803382776608644,2.924218486932933
0.043974189198117304,1.8005725973924485,2.96840821224512
0.04458494182586893,1.7977986414130158,3.012031933293564
0.04519569445362056,1.7950613453472342,3.0550844966458217
0.045806447081372194,1.7923610882578473,3.097561373114751
0.04641719970912382,1.7896981936074576,3.139458613626954
0.04702795233687545,1.7870729312619293,3.1807728068548684
0.047638704964627084,1.784485519479796,3.221501038690942
0.048249457592378704,1.7819361268843732,3.2616408536260093
0.04886021022013034,1.7794248744158465,3.301190218082363
0.049470962847881966,1.7769518372608186,3.3401474857388425
0.050081715475633594,1.7745170467570717,3.3785113648721357
0.05069246810338522,1.772120492271625,3.4162808877286026
0.051303220731136856,1.7697621230503966,3.453455381928721
0.05191397335888848,1.767441850037979,3.49003444389625
0.05252472598664011,1.7651595476662933,3.52601791429541
0.053135478614391746,1.7629150556110462,3.561405855449489
0.05374623124214337,1.760708180515074,3.596198530706426
0.054356983869895,1.758538697677874,3.6303963857097536
0.05496773649764663,1.7564063527106712,3.664000031525379
0.05557848912539826,1.7543108631565842,3.69701022956953
0.056189241753149884,1.7522519200755127,3.729427878276941
0.05679999438090152,1.75022918959345,3.761254001442885
0.057410747008653146,1.748242314416099,3.7924897381698366
0.05802149963640477,1.7462909153066193,3.8231363343437863
0.0586322522641564,1.7443745925275187,3.8531951355639595
0.059243004891908035,1.7424929272466663,3.8826675814450238
0.05985375751965967,1.7406454829075197,3.9115552012112285
0.06046451014741129,1.7388318065636443,3.9398596104974164
0.061075262775162925,1.737051430177689,3.967582509273988
0.06168601540291455,1.7353038718849603,3.9947256808091036
0.06229676803066618,1.7335886372218068,4.021290991583832
0.0629075206584178,1.731905220319003,4.047280392074253
0.06351827328616944,1.7302531050603829,4.072695918317293
0.06412902591392107,1.7286317662069228,4.097539694174864
0.0647397785416727,1.7270406704865582,4.121813934215998
0.06535053116942433,1.7254792776499646,4.145520947135396
0.06596128379717596,1.7239470414925742,4.16866313962994
0.0665720364249276,1.7224434108430713,4.19124302065692
0.06718278905267921,1.720967830518667,4.213263205999254
0.06779354168043085,1.7195197422474173,4.23472642306793
0.06840429430818247,1.718098585557815,4.255635515870292
0.06901504693593409,1.7167037986360096,4.275993450081115
0.06962579956368573,1.7153348191508806,4.295803318152338
0.07023655219143736,1.7139910850472622,4.315068344402039
0.070847304819189,1.7126720353076215,4.333791890026897
0.07145805744694061,1.7113771106824758,4.351977457985082
0.07206881007469225,1.710105754389839,4.369628697699402
0.07267956270244387,1.708857412784032,4.386749409535997
0.0732903153301955,1.7076315359941359,4.403343549014445
0.07390106795794714,1.7064275785324283,4.419415230710626
0.07451182058569876,1.7052449998731303,4.434968731816699
0.0751225732134504,1.7040832650017932,4.4500084953252
0.07573332584120203,1.702941844935681,4.464539132808339
0.07634407846895366,1.7018202172154986,4.4785654267666715
0.07695483109670527,1.7007178663688316,4.492092332524057
0.0775655837244569,1.6996342843456937,4.5051249796499855
0.07817633635220854,1.6985689709265377,4.5176686728919835
0.07878708897996017,1.6975214341031635,4.529728892605233
0.07939784160771181,1.696491190432924,4.541311294668547
0.08000859423546343,1.695477765366638,4.552421709878305
0.08061934686321505,1.6944806935506842,4.5630661428163934
0.08123009949096668,1.693499519103671,4.573250770187808
0.08184085211871832,1.6925337958681996,4.582981938629538
0.08245160474646994,1.6915830876381401,4.592266161991277
0.08306235737422157,1.690646968361945,4.601110118093739
0.08367311000197321,1.6897250223224543,4.609520644970016
0.08428386262972484,1.6888168442937466,4.617504736599746
0.08489461525747646,1.687922039675488,4.625069538145184
0.08550536788522808,1.6870402246053606,4.63222234070263
0.08611612051297972,1.686171026050072,4.638970575582493
0.08672687314073135,1.6853140818754961,4.645321808134019
0.08733762576848299,1.6844690408965022,4.651283731130878
0.08794837839623461,1.6836355629070245,4.656864157737115
0.08855913102398623,1.6828133186909486,4.662071014072267
0.08916988365173786,1.682001990014374,4.666912331396488
0.0897806362794895,1.6812012695998553,4.671396237938047
0.09039138890724112,1.6804108610831898,4.675530950385814
0.09100214153499275,1.679630478953348,4.679324765070005
0.09161289416274439,1.6788598484761574,4.6827860488564275
0.09222364679049602,1.6780987056023187,4.685923229778491
0.09283439941824764,1.6773467968603917,4.688744787434533
0.09344515204599926,1.6766038792353182,4.691259243173832
0.0940559046737509,1.6758697200331367,4.693475150101304
0.09466665730150253,1.6751440967324849,4.69540108292592
0.09527740992925417,1.6744267968234876,4.697045627680476
0.09588816255700579,1.6737176176347002,4.698417371341688
0.09649891518475741,1.6730163661486661,4.69952489137611
0.09710966781250904,1.6723228588067673,4.700376745242031
0.09772042044026068,1.6716369213039315,4.700981459872913
0.09833117306801231,1.6709583883738746,4.7013475211719085
0.09894192569576393,1.6702871035654565,4.701483363544071
0.09955267832351557,1.669622919010781,4.701397359492971
0.10016343095126719,1.6689656951856728,4.701097809310461
0.10077418357901882,1.6683153006631237,4.700592930884328
0.10138493620677044,1.667671611860346,4.699890849651453
0.10199568883452208,1.6670345127800155,4.6989995887212945
0.10260644146227371,1.6664038947463413,4.697927059195664
0.10321719409002535,1.6657796561365463,4.696681050708566
0.10382794671777695,1.6651617021083611,4.69526922221066
0.10443869934552859,1.6645499443241334,4.6936990930216185
0.10504945197328022,1.6639443006721266,4.691978034171644
0.10566020460103186,1.6633446949856086,4.69011326005549
0.10627095722878349,1.6627510567602906,4.68811182041802
0.10688170985653511,1.6621633208706974,4.685980592692285
0.10749246248428675,1.661581427286014,4.683726274707781
0.10810321511203837,1.6610053207859845,4.681355377787702
0.10871396773979,1.66043495067738,4.678874220250887
0.10932472036754162,1.6598702705115898,4.67628892133452
0.10993547299529326,1.659311237803844,4.6736053955512045
0.11054622562304489,1.6587578137545924,4.6708293474952045
0.11115697825079653,1.6582099629735219,4.667966267107002
0.11176773087854816,1.6576676532067212,4.665021425409774
0.11237848350629977,1.6571308550674395,4.661999870724544
0.1129892361340514,1.6565995417709303,4.658906425373901
0.11359998876180304,1.6560736888737868,4.6557456828794725
0.11421074138955467,1.6555532740182393,4.652522005659565
0.11482149401730629,1.6550382766817915,4.649239523229878
0.11543224664505793,1.6545286779326096,4.645902130910618
0.11604299927280955,1.6540244601910403,4.642513489040416
0.11665375190056118,1.6535256069976176,4.639077022697162
0.1172645045283128,1.6530321027878883,4.635595921923888
0.11787525715606444,1.652543932674399,4.632073142456861
0.11848600978381607,1.6520610822361221,4.628511406950816
0.1190967624115677,1.6515835373156207,4.62491320669629
0.11970751503931934,1.651111283824199,4.62128080382114
0.12031826766707095,1.6506443075552844,4.617616233968596
0.12092902029482258,1.6501825940062544,4.613921309441223
0.12153977292257422,1.6497261282089017,4.610197622800097
0.12215052555032585,1.6492748945687075,4.606446550907359
0.12276127817807747,1.648828876713083,4.602669259398207
0.1233720308058291,1.6483880573486824,4.598866707568005
0.12398278343358073,1.6479524181279195,4.595039653658962
0.12459353606133236,1.6475219395247385,4.591188660529269
0.125204288689084,1.6470966007197174,4.587314101688326
0.1258150413168356,1.6466763794945305,4.583416167677812
0.12642579394458725,1.6462612521357738,4.579494872780645
0.12703654657233887,1.645851193348154,4.575550062037218
0.12764729920009052,1.645446176177002,4.571581418547949
0.12825805182784214,1.6450461719400493,4.567588471040526
0.12886880445559376,1.6446511501684,4.563570601680711
0.1294795570833454,1.6442610785565945,4.559527054102835
0.13009030971109703,1.6438759229216446,4.555456941637955
0.13070106233884865,1.6434956471709052,4.551359255716433
0.13131181496660027,1.6431202132786216,4.547232874420314
0.13192256759435192,1.6427495812709763,4.5430765711630094
0.13253332022210354,1.642383709219442,4.538889023471627
0.1331440728498552,1.6420225532422275,4.5346688218480535
0.13375482547760678,1.6416660675135892,4.530414478685525
0.13436557810535843,1.641314204280771,4.526124437216065
0.13497633073311005,1.640966913888298,4.521797080465404
0.1355870833608617,1.640624144809381,4.517430740192726
0.13619783598861332,1.6402858436841223,4.513023705790918
0.13680858861636494,1.6399519553642445,4.508574233126096
0.13741934124411656,1.6396224229640317,4.504080553292942
0.13803009387186818,1.639297187917172,4.499540881265132
0.13864084649961983,1.6389761900391746,4.494953424419012
0.13925159912737145,1.6386593675950383,4.490316390910366
0.1398623517551231,1.6383466573718302,4.485627997884948
0.14047310438287472,1.6380379947558412,4.48088647950222
0.14108385701062634,1.6377333138139658,4.4760900947559294
0.141694609638378,1.6374325473789617,4.471237135072463
0.1423053622661296,1.6371356271382478,4.466325931671306
0.14291611489388123,1.6368424837258762,4.461354862671056
0.14352686752163288,1.6365530468173424,4.45632235992725
0.1441376201493845,1.636267245226872,4.451226915586985
0.14474837277713615,1.6359850070068487,4.446067088348313
0.14535912540488774,1.6357062595490317,4.440841509412252
0.14596987803263936,1.635430929687223,4.435548888115993
0.146580630660391,1.635158943801055,4.430188017238422
0.14719138328814263,1.63489022792056,4.424757777969022
0.14780213591589428,1.6346247078312046,4.419257144530959
0.1484128885436459,1.6343623091790664,4.413685188453653
0.14902364117139752,1.634102957575848,4.408041082487885
0.14963439379914917,1.6338465787034215,4.402324104159265
0.1502451464269008,1.6335930984176206,4.396533638956157
0.15085589905465244,1.6333424428509813,4.390669183149587
0.15146665168240406,1.6330945385141813,4.384730346244339
0.15207740431015568,1.6328493123958854,4.37871685305903
0.15268815693790733,1.6326066920607727,4.372628545437114
0.15329890956565892,1.6323666057454864,4.366465383589781
0.15390966219341054,1.6321289824522829,4.360227447072184
0.1545204148211622,1.6318937520401626,4.353914935398081
0.1551311674489138,1.6316608453132744,4.3475281682946365
0.15574192007666546,1.6314301941063987,4.34106758560496
0.15635267270441708,1.6312017313673315,4.334533746841577
0.1569634253321687,1.6309753912359957,4.327927330399971
0.15757417795992035,1.6307511091201277,4.321249132437576
0.15818493058767197,1.630528821767387,4.31450006542768
0.15879568321542362,1.6303084673337689,4.307681156396252
0.15940643584317524,1.6300899854481898,4.300793544852014
0.16001718847092686,1.6298733172731463,4.29383848041918
0.1606279410986785,1.6296584055613508,4.286817320183915
0.1612386937264301,1.6294451947082629,4.27973152576615
0.16184944635418172,1.629233630800447,4.272582660127983
0.16246019898193337,1.629023661659698,4.265372384131804
0.163070951609685,1.6288152368828948,4.2581024528599745
0.16368170423743664,1.6286083078775375,4.250774711710412
0.16429245686518826,1.628402827892958,4.243391092280644
0.16490320949293988,1.6281987520471886,4.235953608055227
0.16551396212069153,1.6279960373494826,4.228464349909672
0.16612471474844315,1.627794642718513,4.220925481446727
0.1667354673761948,1.6275945289962555,4.21333923417852
0.16734622000394642,1.6273956589575977,4.2057079025707145
0.16795697263169804,1.6271979973157125,4.198033838962083
0.16856772525944969,1.6270015107232527,4.190319448377134
0.16917847788720128,1.6268061677694146,4.182567183244592
0.16978923051495293,1.6266119389729623,4.174779538039001
0.17039998314270455,1.6264187967712673,4.166959043859562
0.17101073577045617,1.6262267155054722,4.159108262962512
0.17162148839820782,1.6260356714018571,4.151229783261388
0.17223224102595944,1.6258456425495236,4.143326212811101
0.17284299365371106,1.625656608874498,4.135400174290931
0.1734537462814627,1.6254685521103747,4.127454299500396
0.17406449890921433,1.6252814557656279,4.1194912238840375
0.17467525153696598,1.62509530508771,4.111513581098658
0.1752860041647176,1.6249100870240818,4.103523997637197
0.17589675679246922,1.6247257901803178,4.095525087524582
0.17650750942022086,1.6245424047754178,4.087519447096802
0.17711826204797246,1.6243599225944994,4.079509649879084
0.1777290146757241,1.6241783369389995,4.071498241573795
0.17833976730347573,1.6239976425745668,4.063487735172024
0.17895051993122735,1.6238178356767958,4.055480606200916
0.179561272558979,1.6236389137749687,4.0474792881170725
0.18017202518673062,1.6234608756939786,4.0394861678582705
0.18078277781448224,1.6232837214945968,4.031503581564263
0.18139353044223389,1.6231074524122657,4.023533810475457
0.1820042830699855,1.622932070794584,4.015579077020672
0.18261503569773715,1.622757580037661,4.007641541101155
0.18322578832548878,1.6225839845215175,3.9997232965808727
0.1838365409532404,1.6224112895447054,3.991826367989114
0.18444729358099204,1.6222395012583286,3.9839527074444407
0.18505804620874364,1.6220686265996291,3.9761041918040174
0.18566879883649529,1.621898673225322,3.968282620046401
0.1862795514642469,1.6217296494448477,3.960489710891268
0.18689030409199853,1.621561564153715,3.952727100661234
0.18750105671975018,1.6213944267670963,3.9449963413889084
0.1881118093475018,1.6212282471538546,3.937298899172979
0.18872256197525342,1.6210630355711462,3.9296361527842967
0.18933331460300507,1.6208988025997801,3.9220093925249215
0.18994406723075669,1.6207355590804708,3.914419819339481
0.19055481985850833,1.6205733160511504,3.9068685441803863
0.19116557248625995,1.62041208468548,3.8993565876246574
0.19177632511401158,1.6202518762327045,3.8918848797424372
0.19238707774176322,1.6200927019589886,3.8844542602139343
0.19299783036951482,1.619934573090368,3.877065478692821
0.19360858299726647,1.619777500757436,3.8697191954116605
0.19421933562501809,1.6196214959418929,3.862415982026435
0.1948300882527697,1.6194665694250676,3.8551563226936283
0.19544084088052135,1.6193127317385196,3.8479406153758267
0.19605159350827298,1.6191599931168208,3.8407691733684413
0.19666234613602462,1.6190083634526138,3.8336422270418775
0.19727309876377624,1.6188578522540242,3.8265599257902743
0.19788385139152787,1.6187084686045201,3.8195223401801317
0.1984946040192795,1.6185602211252703,3.812529464289424
0.19910535664703113,1.6184131179400836,3.8055812182285607
0.19971610927478275,1.618267166642968,3.798677450832991
0.20032686190253438,1.6181223742683668,3.791817942517837
0.200937614530286,1.6179787472641085,3.7850024082841434
0.20154836715803764,1.6178362914670958,3.778230500865255
0.20215911978578927,1.6176950120817657,3.7715018140023258
0.20276987241354089,1.6175549136613248,3.764815885837509
0.20338062504129253,1.6174160000917737,3.758172202412557
0.20399137766904415,1.6172782745787158,3.751570201260593
0.2046021302967958,1.6171417396369367,3.745009275078866
0.20521288292454742,1.6170063970827422,3.7384887754701053
0.20582363555229904,1.6168722480290239,3.7320080167386247
0.2064343881800507,1.6167392928830258,3.7255662797299434
0.2070451408078023,1.616607531346757,3.719162815699578
0.2076558934355539,1.6164769624200184,3.7127968501991355
0.20826664606330555,1.6163475844059754,3.7064675869655592
0.20887739869105718,1.6162193949192156,3.700174211802229
0.20948815131880882,1.6160923908962324,3.6939158964378795
0.21009890394656044,1.6159665686082403,3.6876918023515612
0.21070965657431207,1.6158419236762585,3.6815010845504372
0.2113204092020637,1.6157184510883589,3.675342895289151
0.21193116182981533,1.6155961452189997,3.6692163877177117
0.21254191445756698,1.6154749998503326,3.663120719447779
0.2131526670853186,1.6153550081953905,3.6570550560242348
