frequency,refractiveIndex,absorption
0.0006107526277516292,1.8507596271060485,0.0038854037561850585
0.0012215052555032584,1.8485944814882054,0.01543510547675107
0.0018322578832548875,1.845049502666155,0.03433637039718852
0.002443010511006517,1.8402159225793835,0.06008982388704742
0.003053763138758146,1.8342136395277142,0.09203959367934732
0.003664515766509775,1.8271844621569604,0.1294107533976174
0.004275268394261404,1.8192847263226364,0.1713503535285042
0.004886021022013034,1.8106779358445868,0.21696843237158142
0.005496773649764663,1.8015279698220776,0.2653759531349662
0.006107526277516292,1.7919932447164153,0.3157174330614991
0.006718278905267922,1.782222054274974,0.36719693112050655
0.00732903153301955,1.7723491615651057,0.41909689608779577
0.00793978416077118,1.7624936002779423,0.4707900572531972
0.008550536788522809,1.752757561814024,0.5217450297922128
0.009161289416274438,1.7432261978829737,0.5715266095569097
0.009772042044026067,1.7339681490744379,0.6197918737314523
0.010382794671777697,1.7250366107382908,0.6662832195023298
0.010993547299529326,1.716470761840048,0.7108193981870673
0.011604299927280955,1.708297404813926,0.7532854690995444
0.012215052555032585,1.7005326907290697,0.7936224326707957
0.012825805182784214,1.6931838313355583,0.8318171275198238
0.013436557810535843,1.6862507256537662,0.8678928076128514
0.014047310438287471,1.6797274522817303,0.9019006647313742
0.0146580630660391,1.6736035986486988,0.9339124349733349
0.015268815693790731,1.667865414639594,0.9640141287183465
0.01587956832154236,1.6624967903436276,0.9923008509883049
0.01649032094929399,1.657480066425004,1.018872630774191
0.017101073577045618,1.652796691252402,1.0438311497183488
0.01771182620479725,1.6484277420332318,1.0672772480999337
0.018322578832548876,1.6443543283710296,1.08930908505094
0.018933331460300507,1.640557896450273,1.110020836536197
0.019544084088052135,1.6370204509245394,1.129501825772793
0.020154836715803762,1.633724709920301,1.1478359941003522
0.020765589343555393,1.630654206655163,1.1651016341828282
0.02137634197130702,1.6277933492077392,1.1813713207471148
0.021987094599058652,1.6251274480988722,1.1967119862033369
0.02259784722681028,1.622642719628484,1.2111850991416822
0.02320859985456191,1.6203262713977546,1.2248469127702297
0.023819352482313542,1.618166075143799,1.2377487579051394
0.02443010511006517,1.6161509309173714,1.2499373612802667
0.025040857737816797,1.614270425726949,1.2614551748803522
0.025651610365568428,1.6125148890333103,1.2723407059025937
0.026262362993320056,1.6108753468843062,1.2826288399892056
0.026873115621071687,1.6093434760072038,1.2923511527087534
0.027483868248823314,1.60791155880501,1.301536206032791
0.028094620876574942,1.6065724399149348,1.3102098278763559
0.028705373504326573,1.60531948476583,1.318395373741449
0.0293161261320782,1.6041465404033477,1.326113970201401
0.029926878759829835,1.6030478987258858,1.3333847404562518
0.030537631387581463,1.6020182621816395,1.3402250125217372
0.03114838401533309,1.6010527119101794,1.346650510831595
0.03175913664308472,1.6001466782648401,1.3526755321603867
0.03236988927083635,1.5992959136202312,1.358313106840315
0.03298064189858798,1.5984964673486015,1.3635751462645522
0.03359139452633961,1.5977446628368466,1.3684725776585183
0.034202147154091235,1.5970370764102015,1.3730154670671688
0.03481289978184286,1.5963705180275678,1.3772131314598919
0.0354236524095945,1.5957420136155551,1.3810742407998668
0.036034405037346125,1.5951487889126716,1.3846069108659353
0.03664515766509775,1.5945882547009353,1.3878187875553543
0.03725591029284938,1.5940579933089367,1.3907171233369415
0.037866662920601014,1.593555746277615,1.3933088464675547
0.038477415548352635,1.5930794030874178,1.3956006235312237
0.03908816817610427,1.5926269908529298,1.3975989158108295
0.039698920803855904,1.5921966648982129,1.3993100299557493
0.040309673431607525,1.5917867001330572,1.4007401633675944
0.04092042605935916,1.5913954831568695,1.4018954446875602
0.04153117868711079,1.5910215050231102,1.4027819697348654
0.04214193131486242,1.5906633546029596,1.4034058332150907
0.04275268394261404,1.5903197124922386,1.403773156489607
0.04336343657036568,1.5899893454105847,1.403890111672889
0.043974189198117304,1.589671101046424,1.403762942303144
0.04458494182586893,1.589363903305525,1.4033979808125583
0.04519569445362056,1.5890667479247313,1.4028016630063924
0.045806447081372194,1.5887786984160337,1.4019805397462375
0.04641719970912382,1.5884988823093522,1.4009412860188566
0.04702795233687545,1.5882264876653778,1.3996907075618892
0.047638704964627084,1.5879607598324827,1.39823574520682
0.048249457592378704,1.5877009984242032,1.396583477091961
0.04886021022013034,1.5874465544960246,1.3947411188900631
0.049470962847881966,1.5871968279022608,1.39271602218892
0.050081715475633594,1.5869512648156632,1.390515671157468
0.05069246810338522,1.586709355394119,1.3881476776247972
0.051303220731136856,1.5864706315803505,1.3856197746950665
0.05191397335888848,1.5862346650219206,1.3829398090168135
0.05252472598664011,1.5860010651001561,1.3801157318221398
0.053135478614391746,1.58576947705777,1.3771555888471643
0.05374623124214337,1.5855395802160268,1.3740675092423575
0.054356983869895,1.585311086273278,1.3708596935783015
0.05496773649764663,1.5850837376775648,1.3675404010490937
0.05557848912539826,1.584857306066811,1.3641179359736226
0.056189241753149884,1.5846315907708306,1.3606006336912384
0.05679999438090152,1.5844064173700665,1.356996845946099
0.057410747008653146,1.5841816363065615,1.35331492585134
0.05802149963640477,1.5839571215432013,1.3495632125218733
0.0586322522641564,1.583732769267781,1.3457500154607152
0.059243004891908035,1.5835084966388568,1.3418835987819198
0.05985375751965967,1.5832842405707837,1.3379721653492636
0.06046451014741129,1.583059956555654,1.3340238409070526
0.061075262775162925,1.5828356175202019,1.330046658276297
0.06168601540291455,1.5826112127160126,1.3260485416857277
0.06229676803066618,1.5823867466416177,1.3220372913046654
0.0629075206584178,1.5821622379953078,1.3180205680401778
0.06351827328616944,1.5819377186576549,1.314005878658752
0.06412902591392107,1.5817132327029415,1.310000561288052
0.0647397785416727,1.5814888354388223,1.3060117713514818
0.06535053116942433,1.5812645924736768,1.3020464679850374
0.06596128379717596,1.5810405788112287,1.2981114009809334
0.0665720364249276,1.5808168779720915,1.294213098300845
0.06718278905267921,1.5805935811419813,1.290357854196632
0.06779354168043085,1.580370786346402,1.2865517179733894
0.06840429430818247,1.5801485976516563,1.2828004834264763
0.06901504693593409,1.5799271243920785,1.279109678980271
0.06962579956368573,1.5797064804234149,1.2754845585532906
0.07023655219143736,1.5794867834022903,1.271930093171199
0.070847304819189,1.5792681540917266,1.2684509633454442
0.07145805744694061,1.579050715692677,1.2650515522330243
0.07206881007469225,1.5788345932015297,1.2617359395890277
0.07267956270244387,1.5786199127935607,1.2585078965210812
0.0732903153301955,1.5784068012322654,1.2553708810521385
0.07390106795794714,1.5781953853045252,1.2523280344948757
0.07451182058569876,1.5779857912815158,1.2493821786390358
0.0751225732134504,1.5777781444052772,1.2465358137497387
0.07573332584120203,1.577572568400815,1.243791117373292
0.07634407846895366,1.577369185013609,1.241149943944182
0.07695483109670527,1.5771681135723619,1.2386138251848726
0.0775655837244569,1.5769694705768096,1.2361839712884486
0.07817633635220854,1.5767733693103883,1.2338612728715832
0.07878708897996017,1.5765799194775298,1.231646303683986
0.07939784160771181,1.5763892268653301,1.2295393240587151
0.08000859423546343,1.5762013930293253,1.2275402850859236
0.08061934686321505,1.576016515003072,1.2256488334915225
0.08123009949096668,1.5758346850312184,1.223864317200302
0.08184085211871832,1.5756559903257277,1.2221857915624248
0.08245160474646994,1.5754805128448925,1.2206120262202431
0.08306235737422157,1.575308329094778,1.2191415125921754
0.08367311000197321,1.5751395099526724,1.2177724719481653
0.08428386262972484,1.574974120512167,1.2165028640515796
0.08489461525747646,1.574812219949412,1.2153303963403073
0.08550536788522808,1.5746538614101202,1.2142525336199292
0.08611612051297972,1.5744990919168562,1.2132665082402527
0.08672687314073135,1.5743479522961403,1.2123693307266872
0.08733762576848299,1.5742004771248936,1.211557800836323
0.08794837839623461,1.5740566946957135,1.2108285190086507
0.08855913102398623,1.5739166270004916,1.2101778981803029
0.08916988365173786,1.5737802897318423,1.2096021759321114
0.0897806362794895,1.5736476923018228,1.209097426937178
0.09039138890724112,1.5735188378774105,1.208659575677498
0.09100214153499275,1.5733937234321809,1.2082844093969265
0.09161289416274439,1.573272339813646,1.207967591257564
0.09222364679049602,1.5731546718256755,1.2077046736665134
0.09283439941824764,1.5730406983254432,1.2074911117402047
0.09344515204599926,1.5729303923343059,1.2073222768723935
0.0940559046737509,1.5728237211620353,1.207193470372748
0.09466665730150253,1.5727206465438113,1.207099937142685
0.09527740992925417,1.5726211247893618,1.2070368793544892
0.09588816255700579,1.5725251069436552,1.206999470101015
0.09649891518475741,1.5724325389585176,1.2069828669821705
0.09710966781250904,1.5723433618745608,1.2069822255955094
0.09772042044026068,1.5722575120127829,1.206992712897943
0.09833117306801231,1.5721749211752187,1.207009520406364
0.09894192569576393,1.5720955168539887,1.2070278772048524
0.09955267832351557,1.5720192224481064,1.207043062727042
0.10016343095126719,1.5719459574873913,1.207050419282727
0.10077418357901882,1.571875637862833,1.2070453642981092
0.10138493620677044,1.5718081760627518,1.2070234022400304
0.10199568883452208,1.571743481414089,1.206980136195291
0.10260644146227371,1.5716814603281635,1.206911279076943
0.10321719409002535,1.5716220165502357,1.206812664430489
0.10382794671777695,1.5715650514122053,1.2066802568136605
0.10443869934552859,1.5715104640877815,1.206510161725092
0.10504945197328022,1.5714581518494624,1.2062986350575604
0.10566020460103186,1.5714080103266588,1.2060420920536896
0.10627095722878349,1.5713599337643076,1.2057371157425176
0.10688170985653511,1.57131381528132,1.2053804648373398
0.10749246248428675,1.5712695471282179,1.2049690810760307
0.10810321511203837,1.5712270209433203,1.204500095987729
0.10871396773979,1.5711861280068484,1.2039708370699602
0.10932472036754162,1.5711467594923305,1.2033788333631164
0.10993547299529326,1.5711088067146972,1.2027218204104184
0.11054622562304489,1.5710721613744738,1.2019977445933319
0.11115697825079653,1.5710367157974898,1.2012047668342163
0.11176773087854816,1.5710023631695405,1.2003412656600452
0.11237848350629977,1.5709689977654597,1.1994058396226932
0.1129892361340514,1.5709365151720713,1.1983973090732716
0.11359998876180304,1.5709048125045195,1.1973147172901473
0.11421074138955467,1.570873788615496,1.1961573309618283
0.11482149401730629,1.570843344296895,1.194924640028403
0.11543224664505793,1.5708133824734776,1.1936163568863503
0.11604299927280955,1.5707838083881254,1.1922324149645653
0.11665375190056118,1.5707545297783068,1.1907729666802043
0.1172645045283128,1.5707254570434042,1.1892383807856897
0.11787525715606444,1.570696503402583,1.1876292391198033
0.11848600978381607,1.5706675850429048,1.1859463327769366
0.1190967624115677,1.5706386212574248,1.1841906577118126
0.11970751503931934,1.5706095345730522,1.1823634097967861
0.12031826766707095,1.5705802508679647,1.1804659793519425
0.12092902029482258,1.5705506994784257,1.1784999451690616
0.12153977292257422,1.5705208132948647,1.176467068051836
0.12215052555032585,1.5704905288471245,1.1743692838964876
0.12276127817807747,1.5704597863788181,1.1722086963380043
0.1233720308058291,1.570428529910754,1.1699875689881443
0.12398278343358073,1.5703967072934406,1.1677083172927956
0.12459353606133236,1.5703642702486944,1.1653735000370171
0.125204288689084,1.5703311744004274,1.1629858105268693
0.1258150413168356,1.5702973792947055,1.1605480674778657
0.12642579394458725,1.5702628484092038,1.1580632056407167
0.12703654657233887,1.5702275491522213,1.1555342661951475
0.12764729920009052,1.5701914528514378,1.1529643869432733
0.12825805182784214,1.5701545347326245,1.1503567923340159
0.12886880445559376,1.5701167738885518,1.1477147833503476
0.1294795570833454,1.5700781532383552,1.145041727291157
0.13009030971109703,1.5700386594776499,1.142341047479138
0.13070106233884865,1.5699982830197001,1.1396162129265912
0.13131181496660027,1.5699570179279816,1.1368707279899033
0.13192256759435192,1.5699148618404781,1.134108122043476
0.13253332022210354,1.5698718158860867,1.1313319392036612
0.1331440728498552,1.5698278845935103,1.1285457281318674
0.13375482547760678,1.5697830757930369,1.125753031946115
0.13436557810535843,1.5697374005116174,1.122957378268884
0.13497633073311005,1.5696908728616579,1.120162269438881
0.1355870833608617,1.569643509923963,1.1173711729127178
0.13619783598861332,1.5695953316252627,1.1145875118821276
0.13680858861636494,1.5695463606107691,1.1118146561308897
0.13741934124411656,1.5694966221122093,1.1090559131545135
0.13803009387186818,1.5694461438117864,1.1063145195649824
0.13864084649961983,1.5693949557025233,1.1035936328010112
0.13925159912737145,1.5693430899454341,1.100896323163515
0.1398623517551231,1.5692905807239776,1.0982255661946776
0.14047310438287472,1.569237464096242,1.0955842354170073
0.14108385701062634,1.5691837778453006,1.092975095448954
0.141694609638378,1.5691295613281726,1.090400795510122
0.1423053622661296,1.569074855323826,1.087863863330164
0.14291611489388123,1.5690197018806422,1.0853666994720637
0.14352686752163288,1.5689641441637532,1.0829115720804285
0.1441376201493845,1.5689082263026617,1.0805006120634015
0.14474837277713615,1.5688519932395297,1.0781358087159192
0.14535912540488774,1.5687954905785242,1.0758190057901156
0.14596987803263936,1.5687387644365876,1.0735518980179797
0.146580630660391,1.5686818612959852,1.0713360280897932
0.14719138328814263,1.5686248278589816,1.0691727840904013
0.14780213591589428,1.56856771090497,1.0670633973945176
0.1484128885436459,1.5685105571503672,1.0650089410207502
0.14902364117139752,1.5684534131115855,1.0630103284429067
0.14963439379914917,1.5683963249713535,1.0610683128562701
0.1502451464269008,1.5683393384486677,1.0591834868947145
0.15085589905465244,1.5682824986726216,1.057356282794228
0.15146665168240406,1.5682258500603588,1.0555869729970053
0.15207740431015568,1.5681694361993646,1.0538756711889345
0.15268815693790733,1.5681132997343166,1.052222333763043
0.15329890956565892,1.568057482258673,1.0506267616999068
0.15390966219341054,1.5680020242111874,1.0490886028553852
0.1545204148211622,1.5679469647775008,1.0476073546453628
0.1551311674489138,1.5678923417969668,1.0461823671155965
0.15574192007666546,1.5678381916748274,1.0448128463854487
0.15635267270441708,1.56778454929987,1.0434978584515673
0.1569634253321687,1.5677314479676527,1.0422363333390585
0.15757417795992035,1.5676789193093887,1.0410270695848673
0.15818493058767197,1.5676269932265627,1.0398687390393582
0.15879568321542362,1.5675756978313302,1.0387598919702798
0.15940643584317524,1.5675250593927497,1.0376989624530584
0.16001718847092686,1.5674751022888669,1.0366842740312565
0.1606279410986785,1.5674258489646766,1.0357140456299876
0.1612386937264301,1.5673773198959562,1.0347863977050578
0.16184944635418172,1.5673295335589643,1.033899358610074
0.16246019898193337,1.567282506405978,1.0330508711632764
0.163070951609685,1.5672362528466377,1.0322387993959052
0.16368170423743664,1.5671907852350433,1.0314609354630873
0.16429245686518826,1.567146113862552,1.0307150066987403
0.16490320949293988,1.5671022469561986,1.029998682794812
0.16551396212069153,1.5670591906826583,1.029309583086104
0.16612471474844315,1.5670169491576629,1.0286452839208395
0.1667354673761948,1.5669755244607595,1.0280033260976327
0.16734622000394642,1.566934916655305,1.02738122234946
0.16795697263169804,1.5668951238135667,1.0267764648546747
0.16856772525944969,1.5668561420468015,1.0261865327558883
0.16917847788720128,1.5668179655401668,1.0256088996671733
0.16978923051495293,1.5667805865923128,1.0250410411500344
0.17039998314270455,1.566743995659499,1.0244804421392877
0.17101073577045617,1.5667081814040633,1.0239246042994756
0.17162148839820782,1.5666731307470694,1.0233710532932996
0.17223224102595944,1.5666388289249524,1.022817345943438
0.17284299365371106,1.5666052595499647,1.0222610772696288
0.1734537462814627,1.5665724046742329,1.0216998873830212
0.17406449890921433,1.5665402448572203,1.0211314682205614
0.17467525153696598,1.5665087592363827,1.0205535701022626
0.1752860041647176,1.5664779256008075,1.0199640080947163
0.17589675679246922,1.566447720467613,1.01936066816517
0.17650750942022086,1.5664181191608884,1.0187415131104172
0.17711826204797246,1.5663890958929416,1.0181045882455897
0.1777290146757241,1.5663606238476266,1.0174480268389778
0.17833976730347573,1.5663326752655164,1.0167700552788417
0.17895051993122735,1.5663052215306805,1.0160689979598962
0.179561272558979,1.566278233258832,1.0153432818768695
0.18017202518673062,1.5662516803866033,1.0145914409141585
0.18078277781448224,1.5662255322617062,1.0138121198208863
0.18139353044223389,1.5661997577337374,1.0130040778619163
0.1820042830699855,1.5661743252453855,1.0121661921357212
0.18261503569773715,1.5661492029238029,1.0112974605516176
0.18322578832548878,1.5661243586718974,1.0103970044589754
0.1838365409532404,1.5660997602593099,1.0094640709227543
0.18444729358099204,1.5660753754128425,1.0084980346402177
0.18505804620874364,1.5660511719061039,1.0074983994946043
0.18566879883649529,1.566027117648146,1.0064647997429848
0.1862795514642469,1.5660031807708672,1.005397000836064
0.18689030409199853,1.5659793297149602,1.0042948998690555
0.18750105671975018,1.565955533314197,1.003158525663428
0.1881118093475018,1.565931760877838,1.001988038480848
0.18872256197525342,1.5659079822709678,1.0007837293710922
0.18933331460300507,1.5658841679925597,0.9995460191573307
0.18994406723075669,1.5658602892510876,0.9982754570625368
0.19055481985850833,1.5658363180375043,0.9969727189824074
0.19116557248625995,1.5658122271954142,0.9956386054107995
0.19177632511401158,1.5657879904882857,0.9942740390246724
0.19238707774176322,1.565763582663543,0.9928800619365874
0.19299783036951482,1.565738979513408,0.99145783262382
0.19360858299726647,1.5657141579323457,0.990008622543687
0.19421933562501809,1.5656890959710055,0.9885338124458856
0.1948300882527697,1.5656637728865406,0.987034888393445
0.19544084088052135,1.5656381691892085,0.985513437504348
0.19605159350827298,1.5656122666851633,0.9839711434271887
0.19666234613602462,1.5655860485153654,0.9824097815643089
0.19727309876377624,1.5655594991905404,0.9808312140570008
0.19788385139152787,1.565532604622137,0.9792373845477628
0.1984946040192795,1.5655053521492381,0.9776303127352451
0.19910535664703113,1.5654777305613992,0.9760120887378131
0.19971610927478275,1.5654497301173924,0.9743848672825144
0.20032686190253438,1.5654213425598507,0.9727508617362091
0.200937614530286,1.5653925611258166,0.9711123379962366
0.20154836715803764,1.5653633805532126,0.9694716082584128
0.20215911978578927,1.5653337970832577,0.9678310246796348
0.20276987241354089,1.5653038084588733,0.9661929729538684
0.20338062504129253,1.5652734139191216,0.9645598658190184
0.20399137766904415,1.56524261418974,0.9629341365130527
0.2046021302967958,1.5652114114698426,0.9613182321978603
0.20521288292454742,1.5651798094148612,0.9597146073685626
0.20582363555229904,1.5651478131158247,0.958125717266479
0.2064343881800507,1.5651154290750653,0.9565540113138982
0.2070451408078023,1.565082665178465,0.9550019265877389
0.2076558934355539,1.5650495306643544,0.9534718813502021
0.20826664606330555,1.565016036089186,0.9519662686528849
0.20887739869105718,1.5649821932901111,0.9504874500314456
0.20948815131880882,1.5649480153446003,0.9490377493070495
0.21009890394656044,1.564913516527244,0.9476194465105603
0.21070965657431207,1.5648787122638887,0.946234771944382
0.2113204092020637,1.5648436190832535,0.9448859003976989
