frequency,refractiveIndex,absorption
0.0006107526277516292,1.7270353493986035,-3.167570852116411e-05
0.0012215052555032584,1.7270079499120095,-0.0001266936680819807
0.0018322578832548875,1.726962324825511,-0.0002850259362283064
0.002443010511006517,1.7268985350940145,-0.0005066244664367245
0.003053763138758146,1.7268166657917121,-0.0007914189145126272
0.003664515766509775,1.7267168258516763,-0.0011393136073569907
0.004275268394261404,1.726599147734285,-0.0015501837132449697
0.004886021022013034,1.7264637870268256,-0.002023870663011057
0.005496773649764663,1.7263109219770647,-0.0025601768810921345
0.006107526277516292,1.7261407529640889,-0.003158859894157553
0.006718278905267922,1.7259535019099814,-0.0038196258929495833
0.00732903153301955,1.7257494116363177,-0.004542122829667141
0.00793978416077118,1.7255287451697339,-0.00532593313919856
0.008550536788522809,1.7252917850010534,-0.006170566176942866
0.009161289416274438,1.7250388323026087,-0.00707545046952567
0.009772042044026067,1.7247702061086416,-0.008039925876885663
0.010382794671777697,1.724486242463555,-0.009063235765344282
0.010993547299529326,1.724187293543012,-0.010144519291046983
0.011604299927280955,1.7238737267527013,-0.01128280389201568
0.012215052555032585,1.7235459238096154,-0.012476998084458438
0.012825805182784214,1.7232042798105147,-0.013725884655936108
0.013436557810535843,1.7228492022920525,-0.015028114343378937
0.014047310438287471,1.7224811102870061,-0.016382200078691712
0.0146580630660391,1.722100433380601,-0.017786511879041504
0.015268815693790731,1.721707610770834,-0.019239272451909546
0.01587956832154236,1.721303090336306,-0.02073855357810638
0.01649032094929399,1.7208873277149186,-0.022282273327996743
0.017101073577045618,1.7204607853962859,-0.023868194158470264
0.01771182620479725,1.720023931830524,-0.02549392192989237
0.018322578832548876,1.7195772405558056,-0.027156905873593477
0.018933331460300507,1.7191211893465355,-0.02885443953267916
0.019544084088052135,1.7186562593839476,-0.030583662689903222
0.020154836715803762,1.7181829344503863,-0.03234156428867153
0.020765589343555393,1.7177017001484403,-0.03412498634487272
0.02137634197130702,1.717213043145634,-0.035930628839713534
0.021987094599058652,1.7167174504452525,-0.03775505557637013
0.02259784722681028,1.7162154086835881,-0.039594700976016924
0.02320859985456191,1.7157074034536437,-0.0414458777826343
0.023819352482313542,1.7151939186552014,-0.04330478563951111
0.02443010511006517,1.714675435870916,-0.04516752049493612
0.025040857737816797,1.714152433767967,-0.04703008478974279
0.025651610365568428,1.7136253875247038,-0.04888839837415938
0.026262362993320056,1.7130947682815847,-0.05073831009796221
0.026873115621071687,1.7125610426156137,-0.05257561001413906
0.027483868248823314,1.712024672037413,-0.05439604213346974
0.028094620876574942,1.7114861125101213,-0.05619531766440897
0.028705373504326573,1.710945813989131,-0.05796912867150257
0.0293161261320782,1.7104042199817864,-0.059713162083321426
0.029926878759829835,1.7098617671261558,-0.06142311397996803
0.030537631387581463,1.7093188847879868,-0.0630947040900685
0.03114838401533309,1.7087759946749912,-0.06472369042631096
0.03175913664308472,1.7082335104677224,-0.06630588398898823
0.03236988927083635,1.707691837466257,-0.06783716346793779
0.03298064189858798,1.707151372252059,-0.06931348987344166
0.03359139452633961,1.7066125023644318,-0.070730921028442
0.034202147154091235,1.706075605991025,-0.07208562585577824
0.03481289978184286,1.7055410516719696,-0.07337389839585141
0.0354236524095945,1.7050091980173148,-0.07459217149206208
0.036034405037346125,1.7044803934374526,-0.07573703008402911
0.03664515766509775,1.703954975886353,-0.07680522405087015
0.03725591029284938,1.7034332726175234,-0.07779368054908205
0.037866662920601014,1.70291559995261,-0.07869951579335115
0.038477415548352635,1.7024022630626907,-0.07952004623089533
0.03908816817610427,1.7018935557623762,-0.08025279906317169
0.039698920803855904,1.701389760316829,-0.08089552207252876
0.040309673431607525,1.700891147261965,-0.08144619271433708
0.04092042605935916,1.7003979752380514,-0.08190302643877774
0.04153117868711079,1.6999104908370393,-0.08226448421010117
0.04214193131486242,1.6994289284639243,-0.08252927919482925
0.04275268394261404,1.698953510212537,-0.08269638259372761
0.04336343657036568,1.6984844457561017,-0.08276502859701929
0.043974189198117304,1.6980219322529888,-0.08273471844470617
0.04458494182586893,1.6975661542680416,-0.08260522357879554
0.04519569445362056,1.6971172837098485,-0.08237658787792898
0.045806447081372194,1.6966754797844026,-0.08204912896756382
0.04641719970912382,1.6962408889654443,-0.08162343860403595
0.04702795233687545,1.695813644981879,-0.08110038213361621
0.047638704964627084,1.6953938688225834,-0.08048109703148239
0.048249457592378704,1.6949816687588604,-0.07976699052923042
0.04886021022013034,1.6945771403848071,-0.07895973634314171
0.049470962847881966,1.6941803666757889,-0.07806127051813708
0.050081715475633594,1.6937914180651752,-0.07707378640664204
0.05069246810338522,1.6934103525394415,-0.07599972880391165
0.051303220731136856,1.6930372157516715,-0.074841787264793
0.05191397335888848,1.6926720411534828,-0.07360288862979925
0.05252472598664011,1.6923148501452718,-0.07228618879066488
0.053135478614391746,1.6919656522446735,-0.07089506372913332
0.05374623124214337,1.6916244452730527,-0.06943309986364561
0.054356983869895,1.691291215559758,-0.06790408374233389
0.05496773649764663,1.6909659381638469,-0.06631199112177957
0.05557848912539826,1.6906485771128932,-0.06466097547336139
0.056189241753149884,1.6903390856584732,-0.06295535596006141
0.05679999438090152,1.6900374065478037,-0.061199604929039565
0.057410747008653146,1.6897434723110263,-0.05939833496549596
0.05802149963640477,1.6894572055635046,-0.05755628555523828
0.0586322522641564,1.6891785193225135,-0.055678309403200336
0.059243004891908035,1.6889073173375864,-0.05376935845747039
0.05985375751965967,1.6886434944338122,-0.05183446968667504
0.06046451014741129,1.6883869368672682,-0.049878750660585336
0.061075262775162925,1.6881375226917785,-0.0479073649825631
0.06168601540291455,1.6878951221361151,-0.0459255176241277
0.06229676803066618,1.6876595979907907,-0.043938440208054506
0.0629075206584178,1.6874308060034773,-0.041951376291049204
0.06351827328616944,1.68720859528216,-0.03996956669045526
0.06412902591392107,1.686992808705022,-0.03799823490393842
0.0647397785416727,1.6867832833361196,-0.03604257266647909
0.06535053116942433,1.6865798508458578,-0.034107725688725665
0.06596128379717596,1.686382337935273,-0.03219877962083505
0.0665720364249276,1.6861905667631278,-0.030320746282142128
0.06718278905267921,1.6860043553748574,-0.02847855019730513
0.06779354168043085,1.6858235181323562,-0.02667701547702514
0.06840429430818247,1.6856478661436354,-0.02492085307988156
0.06901504693593409,1.6854772076914228,-0.02321464848932585
0.06962579956368573,1.685311348659726,-0.02156284983944888
0.07023655219143736,1.6851500929574619,-0.019969756519112487
0.070847304819189,1.6849932429382288,-0.018439508284135406
0.07145805744694061,1.684840599815372,-0.016976074902925936
0.07206881007469225,1.6846919640714833,-0.015583246360183052
0.07267956270244387,1.68454713586151,-0.014264623641128007
0.0732903153301955,1.6844059154086954,-0.013023610116245617
0.07390106795794714,1.6842681033926081,-0.011863403543179721
0.07451182058569876,1.6841335013285221,-0.01078698870300095
0.0751225732134504,1.684001911937496,-0.009797130682590747
0.07573332584120203,1.6838731395064714,-0.008896368816080902
0.07634407846895366,1.6837469902378337,-0.00808701129234479
0.07695483109670527,1.6836232725878295,-0.0073711304376308994
0.0775655837244569,1.683501797593347,-0.006750558676619649
0.07817633635220854,1.6833823791865552,-0.006226885175713679
0.07878708897996017,1.6832648344969663,-0.005801453169433954
0.07939784160771181,1.6831489841405274,-0.005475357968100234
0.08000859423546343,1.6830346524953606,-0.00524944564527252
0.08061934686321505,1.682921667963842,-0.005124312399070677
0.08123009949096668,1.682809863220733,-0.0051003045818014585
0.08184085211871832,1.6826990754471118,-0.005177519389169936
0.08245160474646994,1.6825891465499134,-0.00535580620023031
0.08306235737422157,1.6824799233668912,-0.005634768555899979
0.08367311000197321,1.6823712578568795,-0.0060137667639133955
0.08428386262972484,1.6822630072752558,-0.006491921116307524
0.08489461525747646,1.682155034334542,-0.007068115703256984
0.08550536788522808,1.6820472073501087,-0.007741002807354742
0.08611612051297972,1.6819394003709933,-0.008509007860028768
0.08672687314073135,1.681831493295867,-0.009370334940745842
0.08733762576848299,1.6817233719742057,-0.010322972800269068
0.08794837839623461,1.681614928292772,-0.011364701385081465
0.08855913102398623,1.6815060602475176,-0.012493098842326487
0.08916988365173786,1.681396672001067,-0.01370554898200961
0.0897806362794895,1.6812866739259467,-0.01499924917267891
0.09039138890724112,1.6811759826337647,-0.01637121864641255
0.09100214153499275,1.6810645209905595,-0.017818307188214883
0.09161289416274439,1.6809522181185659,-0.019337204183855417
0.09222364679049602,1.6808390093846568,-0.020924448000510975
0.09283439941824764,1.6807248363757679,-0.022576435672612378
0.09344515204599926,1.6806096468615683,-0.02428943286765164
0.0940559046737509,1.680493394744756,-0.026059584101970318
0.09466665730150253,1.680376039999275,-0.027882923181448718
0.09527740992925417,1.6802575485968192,-0.029755383837428335
0.09588816255700579,1.680137892422018,-0.031672810530143806
0.09649891518475741,1.6800170491766677,-0.03363096939179518
0.09710966781250904,1.6798950022734076,-0.035625559280366766
0.09772042044026068,1.67977174071927,-0.03765222291658338
0.09833117306801231,1.6796472589895202,-0.039706558074208864
0.09894192569576393,1.6795215568922157,-0.04178412879772235
0.09955267832351557,1.6793946394239383,-0.043880476617330605
0.10016343095126719,1.6792665166171565,-0.04599113173396334
0.10077418357901882,1.67913720337967,-0.04811162414751265
0.10138493620677044,1.679006719326626,-0.05023749469993612
0.10199568883452208,1.6788750886055603,-0.05236430600710298
0.10260644146227371,1.6787423397149823,-0.054487653251948355
0.10321719409002535,1.6786085053169546,-0.056603174814400636
0.10382794671777695,1.6784736220441994,-0.058706562711188896
0.10443869934552859,1.678337730302203,-0.06079357282128052
0.10504945197328022,1.6782008740668333,-0.06286003487308536
0.10566020460103186,1.6780631006779696,-0.06490186216920003
0.10627095722878349,1.6779244606296617,-0.066915061026119
0.10688170985653511,1.6777850073572977,-0.06889573990750941
0.10749246248428675,1.6776447970223167,-0.07084011822924943
0.10810321511203837,1.6775038882949518,-0.07274453481618169
0.10871396773979,1.6773623421355126,-0.07460545599149235
0.10932472036754162,1.6772202215747039,-0.07641948328074302
0.10993547299529326,1.6770775914934797,-0.0781833607124523
0.11054622562304489,1.676934518402927,-0.07989398169986221
0.11115697825079653,1.6767910702246458,-0.08154839548919961
0.11176773087854816,1.6766473160721378,-0.08314381315924231
0.11237848350629977,1.6765033260336426,-0.08467761316127786
0.1129892361340514,1.6763591709569008,-0.08614734638681035
0.11359998876180304,1.6762149222363045,-0.08755074075337198
0.11421074138955467,1.6760706516028572,-0.08888570530013042
0.11482149401730629,1.6759264309174016,-0.09015033378457592
0.11543224664505793,1.6757823319675116,-0.09134290777553507
0.11604299927280955,1.6756384262684816,-0.09246189923658199
0.11665375190056118,1.6754947848687818,-0.09350597259730044
0.1172645045283128,1.6753514781603798,-0.0944739863096692
0.11787525715606444,1.6752085756942798,-0.09536499388946966
0.11848600978381607,1.675066146001637,-0.09617824444308391
0.1190967624115677,1.6749242564207696,-0.09691318268159448
0.11970751503931934,1.674782972930386,-0.09756944842676867
0.12031826766707095,1.6746423599893292,-0.09814687561204496
0.12092902029482258,1.6745024803830983,-0.09864549078625459
0.12153977292257422,1.6743633950774255,-0.09906551112655465
0.12215052555032585,1.6742251630791274,-0.09940734197016965
0.12276127817807747,1.6740878413044544,-0.09967157387412284
0.1233720308058291,1.6739514844551395,-0.09985897921495836
0.12398278343358073,1.6738161449023121,-0.09997050834041504
0.12459353606133236,1.6736818725784306,-0.10000728528775654
0.125204288689084,1.673548714877372,-0.09997060308129752
0.1258150413168356,1.673416716562786,-0.09986191862739406
0.12642579394458725,1.6732859196847911,-0.09968284722212804
0.12703654657233887,1.6731563635050974,-0.09943515668967745
0.12764729920009052,1.6730280844305752,-0.09912076117066215
0.12825805182784214,1.6729011159553173,-0.09874171457874566
0.12886880445559376,1.672775488611177,-0.09830020374663309
0.1294795570833454,1.6726512299267633,-0.09779854128193637
0.13009030971109703,1.6725283643948619,-0.09723915815461133
0.13070106233884865,1.6724069134482027,-0.09662459603753289
0.13131181496660027,1.6722868954435053,-0.09595749942337552
0.13192256759435192,1.6721683256536921,-0.09524060754049864
0.13253332022210354,1.6720512162681442,-0.09447674609069505
0.1331440728498552,1.6719355764008712,-0.09366881883305903
0.13375482547760678,1.6718214121064219,-0.09281979903721951
0.13436557810535843,1.6717087264033714,-0.09193272082995385
0.13497633073311005,1.6715975193051849,-0.09101067045872233
0.1355870833608617,1.6714877878582566,-0.09005677749697655
0.13619783598861332,1.671379526186899,-0.0890742060131313
0.13680858861636494,1.671272725545042,-0.08806614572984085
0.13741934124411656,1.671167374374398,-0.08703580319268739
0.13803009387186818,1.6710634583688335,-0.08598639297577294
0.13864084649961983,1.6709609605446638,-0.08492112894385692
0.13925159912737145,1.6708598613166008,-0.08384321559455295
0.1398623517551231,1.6707601385790558,-0.08275583950164053
0.14047310438287472,1.670661767792493,-0.08166216088279661
0.14108385701062634,1.6705647220745432,-0.08056530530846648
0.141694609638378,1.670468972295536,-0.0794683555767362
0.1423053622661296,1.6703744871781645,-0.07837434376934095
0.14291611489388123,1.6702812334009356,-0.07728624350996849
0.14352686752163288,1.6701891757050882,-0.07620696244176073
0.1441376201493845,1.6700982770046553,-0.0751393349411715
0.14474837277713615,1.67000849849933,-0.07408611508437223
0.14535912540488774,1.6699197997898165,-0.07304996988130062
0.14596987803263936,1.669832138995327,-0.07203347279249023
0.146580630660391,1.6697454728729026,-0.07103909754117649
0.14719138328814263,1.6696597569382277,-0.07006921223385157
0.14780213591589428,1.6695749455876174,-0.06912607380087284
0.1484128885436459,1.6694909922208554,-0.06821182276748171
0.14902364117139752,1.6694078493645725,-0.06732847836496764
0.14963439379914917,1.6693254687958454,-0.0664779339905966
0.1502451464269008,1.669243801665727,-0.0656619530242399
0.15085589905465244,1.6691627986223925,-0.06488216500757739
0.15146665168240406,1.6690824099336277,-0.06414006219287229
0.15207740431015568,1.6690025856083632,-0.06343699646409162
0.15268815693790733,1.668923275516985,-0.06277417663616816
0.15329890956565892,1.6688444295101572,-0.06215266613338755
0.15390966219341054,1.6687659975358955,-0.06157338104952663
0.1545204148211622,1.6686879297546398,-0.06103708859002075
0.1551311674489138,1.6686101766521027,-0.06054440589700569
0.15574192007666546,1.6685326891496433,-0.0600957992541016
0.15635267270441708,1.6684554187119676,-0.05969158367191189
0.1569634253321687,1.6683783174519358,-0.059331922848135245
0.15757417795992035,1.668301338232292,-0.05901682950117981
0.15818493058767197,1.6682244347641138,-0.058746166071260125
0.15879568321542362,1.6681475617018244,-0.05851964578394988
0.15940643584317524,1.6680706747345935,-0.05833683407021801
0.16001718847092686,1.6679937306739778,-0.05819715033581014
0.1606279410986785,1.6679166875376632,-0.05809987007231307
0.1612386937264301,1.6678395046291765,-0.05804412730133586
0.16184944635418172,1.6677621426134497,-0.058028917343319955
0.16246019898193337,1.6676845635881343,-0.05805309990075945
0.163070951609685,1.6676067311505645,-0.05811540244524774
0.16368170423743664,1.6675286104602889,-0.05821442389893599
0.16429245686518826,1.6674501682971061,-0.058348638596210305
0.16490320949293988,1.66737137311453,-0.0585164005164873
0.16551396212069153,1.6672921950886435,-0.05871594777376476
0.16612471474844315,1.6672126061622998,-0.05894540735092071
0.1667354673761948,1.667132580084646,-0.05920280006412541
0.16734622000394642,1.6670520924459442,-0.05948604574558874
0.16795697263169804,1.6669711207076936,-0.05979296862857761
0.16856772525944969,1.6668896442280474,-0.06012130292089362
0.16917847788720128,1.666807644282542,-0.060468698552726866
0.16978923051495293,1.666725104080165,-0.06083272708266272
0.17039998314270455,1.6666420087747902,-0.06121088774719894
0.17101073577045617,1.666558345472024,-0.06160061363836135
0.17162148839820782,1.6664741032315133,-0.06199927799359046
0.17223224102595944,1.6663892730647818,-0.062404200581885984
0.17284299365371106,1.666303847928655,-0.06281265417055862
0.1734537462814627,1.6662178227143565,-0.06322187105719637
0.17406449890921433,1.66613119423237,-0.06362904964916236
0.17467525153696598,1.666043961193139,-0.06403136107743462
0.1752860041647176,1.665956124183734,-0.06442595582531992
0.17589675679246922,1.6658676856405734,-0.06480997035944325
0.17650750942022086,1.6657786498183256,-0.06518053374506717
0.17711826204797246,1.665689022755117,-0.06553477423138006
0.1777290146757241,1.665598812234164,-0.06586982579005876
0.17833976730347573,1.665508027741981,-0.06618283459323324
0.17895051993122735,1.6654166804232893,-0.06647096541444403
0.179561272558979,1.6653247830327875,-0.06673140793883478
0.18017202518673062,1.6652323498839283,-0.06696138296774373
0.18078277781448224,1.6651393967948596,-0.06715814850291231
0.18139353044223389,1.6650459410316916,-0.0673190056980909
0.1820042830699855,1.6649520012492582,-0.06744130466274588
0.18261503569773715,1.664857597429541,-0.06752245010615825
0.18322578832548878,1.6647627508179232,-0.06755990680886707
0.1838365409532404,1.664667483857458,-0.06755120491001834
0.18444729358099204,1.6645718201213235,-0.06749394499765014
0.18505804620874364,1.664475784243649,-0.06738580299261238
0.18566879883649529,1.6643794018488873,-0.06722453481467523
0.1862795514642469,1.6642826994799316,-0.06700798082079812
0.18689030409199853,1.664185704525145,-0.06673407000708032
0.18750105671975018,1.6640884451444964,-0.06640082396518247
0.1881118093475018,1.6639909501949988,-0.06600636058505463
0.18872256197525342,1.6638932491556058,-0.06554889749759917
0.18933331460300507,1.6637953720517895,-0.06502675524934462
0.18994406723075669,1.6636973493799512,-0.06443836020424364
0.19055481985850833,1.663599212031869,-0.06378224716685552
0.19116557248625995,1.6635009912193481,-0.06305706172312467
0.19177632511401158,1.663402718399263,-0.06226156229382565
0.19238707774176322,1.6633044251991602,-0.06139462189905102
0.19299783036951482,1.6632061433436,-0.060455229630548425
0.19360858299726647,1.6631079045813955,-0.05944249183137609
0.19421933562501809,1.663009740613931,-0.058355632981184645
0.1948300882527697,1.662911683024704,-0.057193996288212805
0.19544084088052135,1.662813763210256,-0.05595704398867924
0.19605159350827298,1.6627160123126414,-0.05464435735461157
0.19666234613602462,1.6626184611535832,-0.053255636413264744
0.19727309876377624,1.6625211401704476,-0.05179069938137052
0.19788385139152787,1.6624240793541816,-0.05024948181751801
0.1984946040192795,1.6623273081893335,-0.04863203549790578
0.19910535664703113,1.6622308555962826,-0.04693852702085626
0.19971610927478275,1.6621347498757915,-0.045169236145906844
0.20032686190253438,1.6620390186559828,-0.04332455387450524
0.200937614530286,1.6619436888418497,-0.04140498027982136
0.20154836715803764,1.6618487865673828,-0.039411122093840414
0.20215911978578927,1.6617543371504033,-0.03734369005985797
0.20276987241354089,1.6616603650501787,-0.035203496060960994
