frequency,refractiveIndex,absorption
0.0006107526277516292,1.5781668019435762,-0.00024060603204794511
0.0012215052555032584,1.578213108830753,-0.0009615211637147614
0.0018322578832548875,1.578290064931157,-0.002160046244091823
0.002443010511006517,1.5783973397665119,-0.0038317149535506156
0.003053763138758146,1.5785344757864639,-0.0059703414747597165
0.003664515766509775,1.5787008933529543,-0.008568085805666483
0.004275268394261404,1.5788958969614086,-0.011615535349901836
0.004886021022013034,1.5791186825679797,-0.015101801114790715
0.005496773649764663,1.5793683458727414,-0.019014626598840453
0.006107526277516292,1.579643891394568,-0.023340507265601003
0.006718278905267922,1.579944242164734,-0.028064818381963764
0.00732903153301955,1.5802682498626135,-0.03317194894652755
0.00793978416077118,1.5806147052183883,-0.03864543944471361
0.008550536788522809,1.5809823485138306,-0.044468121236407886
0.009161289416274438,1.5813698800221443,-0.05062225550249576
0.009772042044026067,1.5817759702413894,-0.057089669838973504
0.010382794671777697,1.5821992697917262,-0.0638518907835793
0.010993547299529326,1.5826384188644569,-0.07089027077894082
0.011604299927280955,1.5830920561293373,-0.07818610830981874
0.012215052555032585,1.5835588270256373,-0.08572076019071245
0.012825805182784214,1.5840373913807841,-0.09347574521689925
0.013436557810535843,1.5845264303184408,-0.10143283861903338
0.014047310438287471,1.585024652434045,-0.10957415697506545
0.0146580630660391,1.5855307992308867,-0.11788223342795486
0.015268815693790731,1.5860436498230521,-0.12634008323122603
0.01587956832154236,1.5865620249226058,-0.13493125979621826
0.01649032094929399,1.587084790138165,-0.143639901541255
0.017101073577045618,1.587610858619204,-0.15245076994895904
0.01771182620479725,1.5881391930865179,-0.1613492793192628
0.018322578832548876,1.5886688072933697,-0.17032151876760415
0.018933331460300507,1.5891987669645544,-0.17935426706040797
0.019544084088052135,1.589728190262042,-0.18843500090570292
0.020154836715803762,1.590256247826264,-0.19755189732743517
0.020765589343555393,1.590782162441431,-0.20669383075066652
0.02137634197130702,1.5913052083718011,-0.21585036541306585
0.021987094599058652,1.5918247104141412,-0.22501174369650692
0.02259784722681028,1.592340042708835,-0.23416887094689126
0.02320859985456191,1.5928506273495697,-0.24331329731732654
0.023819352482313542,1.5933559328285205,-0.25243719713443835
0.02443010511006517,1.5938554723507643,-0.26153334625034075
0.025040857737816797,1.594348802048657,-0.2705950978035397
0.025651610365568428,1.5948355191237602,-0.2796163567733838
0.026262362993320056,1.5953152599408316,-0.28859155367408773
0.026873115621071687,1.5957876980956252,-0.2975156176974802
0.027483868248823314,1.5962525424753549,-0.30638394957745424
0.028094620876574942,1.5967095353282648,-0.315192394415361
0.028705373504326573,1.5971584503562453,-0.32393721467460207
0.0293161261320782,1.5975990908422355,-0.33261506352254305
0.029926878759829835,1.5980312878223277,-0.3412229586704878
0.030537631387581463,1.5984548983104059,-0.34975825683979556
0.03114838401533309,1.5988698035817805,-0.3582186289567591
0.03175913664308472,1.5992759075206957,-0.3666020361614876
0.03236988927083635,1.5996731350353348,-0.3749067066965384
0.03298064189858798,1.6000614305428582,-0.3831311137255634
0.03359139452633961,1.6004407565260197,-0.39127395411797894
0.034202147154091235,1.6008110921620387,-0.3993341282236555
0.03481289978184286,1.6011724320237257,-0.40731072065093105
0.0354236524095945,1.6015247848522534,-0.41520298205156364
0.036034405037346125,1.6018681724003878,-0.4230103119094562
0.03664515766509775,1.602202628344696,-0.4307322423220925
0.03725591029284938,1.6025281972647814,-0.43836842275921106
0.037866662920601014,1.6028449336874024,-0.4459186057782932
0.038477415548352635,1.603152901193128,-0.453382633672351
0.03908816817610427,1.6034521715829768,-0.4607604260232239
0.039698920803855904,1.603742824102387,-0.4680519681314112
0.040309673431607525,1.604024944719889,-0.4752573002906185
0.04092042605935916,1.6042986254576586,-0.4823765078756183
0.04153117868711079,1.6045639637712767,-0.48940971221005175
0.04214193131486242,1.6048210619759202,-0.4963570621813525
0.04275268394261404,1.605070026716356,-0.5032187265682821
0.04336343657036568,1.6053109684780662,-0.5099948870493985
0.043974189198117304,1.6055440011369746,-0.5166857318581275
0.04458494182586893,1.6057692415452829,-0.5232914500531336
0.04519569445362056,1.6059868091510419,-0.5298122263717996
0.045806447081372194,1.6061968256491583,-0.5362482366361409
0.04641719970912382,1.6063994146616403,-0.5425996436812608
0.04702795233687545,1.6065947014449748,-0.5488665937774474
0.047638704964627084,1.6067828126226777,-0.5550492135175691
0.048249457592378704,1.6069638759411082,-0.5611476071428075
0.04886021022013034,1.6071380200467424,-0.5671618542812893
0.049470962847881966,1.6073053742832668,-0.5730920080738836
0.050081715475633594,1.6074660685068687,-0.578938093663746
0.05069246810338522,1.607620232918247,-0.5847001070264142
0.051303220731136856,1.6077679979099557,-0.5903780141186886
0.05191397335888848,1.6079094939277578,-0.5959717503253145
0.05252472598664011,1.6080448513447907,-0.601481220183235
0.053135478614391746,1.608174200347398,-0.606906297364618
0.05374623124214337,1.6082976708315675,-0.61224682490011
0.054356983869895,1.6084153923090196,-0.6175026156250694
0.05496773649764663,1.608527493822015,-0.6226734528321215
0.05557848912539826,1.6086341038660568,-0.62775909111448
0.056189241753149884,1.608735350319713,-0.632759257384573
0.05679999438090152,1.608831360380847,-0.6376736520539571
0.057410747008653146,1.6089222605085973,-0.6425019503609241
0.05802149963640477,1.6090081763705197,-0.6472438038323264
0.0586322522641564,1.609089232794322,-0.6518988418679179
0.059243004891908035,1.6091655537236997,-0.6564666734351798
0.05985375751965967,1.6092372621778255,-0.6609468888632035
0.06046451014741129,1.6093044802140575,-0.6653390617252197
0.061075262775162925,1.6093673288934958,-0.6696427507998837
0.06168601540291455,1.6094259282490357,-0.673857502101383
0.06229676803066618,1.6094803972556329,-0.6779828509691244
0.0629075206584178,1.609530853802469,-0.6820183242088039
0.06351827328616944,1.6095774146667885,-0.6859634422761907
0.06412902591392107,1.6096201954891711,-0.6898177214958405
0.0647397785416727,1.6096593107500432,-0.6935806763075532
0.06535053116942433,1.6096948737472445,-0.6972518215332663
0.06596128379717596,1.609726996574504,-0.700830674657584
0.0665720364249276,1.6097557901006563,-0.7043167581160867
0.06718278905267921,1.6097813639495047,-0.7077096015845715
0.06779354168043085,1.6098038264802135,-0.7110087442642012
0.06840429430818247,1.6098232847681144,-0.7142137371567033
0.06901504693593409,1.6098398445858744,-0.7173241453246944
0.06962579956368573,1.6098536103849423,-0.7203395501316997
0.07023655219143736,1.6098646852772072,-0.7232595514579243
0.070847304819189,1.6098731710168257,-0.7260837698868146
0.07145805744694061,1.609879167982175,-0.7288118488582396
0.07206881007469225,1.6098827751579041,-0.7314434567841772
0.07267956270244387,1.6098840901170397,-0.7339782891234935
0.0732903153301955,1.6098832090031407,-0.7364160704114997
0.07390106795794714,1.6098802265124728,-0.7387565562415859
0.07451182058569876,1.609875235876217,-0.7409995351943589
0.0751225732134504,1.6098683288426725,-0.743144830712536
0.07573332584120203,1.6098595956594857,-0.7451923029171911
0.07634407846895366,1.6098491250558815,-0.7471418503634734
0.07695483109670527,1.6098370042249255,-0.7489934117319579
0.0775655837244569,1.6098233188058106,-0.7507469674536846
0.07817633635220854,1.6098081528661887,-0.7524025412656615
0.07878708897996017,1.6097915888845582,-0.7539602016948017
0.07939784160771181,1.6097737077327336,-0.7554200634669419
0.08000859423546343,1.6097545886584057,-0.7567822888398013
0.08061934686321505,1.6097343092678313,-0.7580470888561208
0.08123009949096668,1.609712945508652,-0.7592147245159319
0.08184085211871832,1.6096905716529053,-0.7602855078648567
0.08245160474646994,1.6096672602802216,-0.7612598029968066
0.08306235737422157,1.6096430822612615,-0.762138026968923
0.08367311000197321,1.6096181067414144,-0.7629206506263788
0.08428386262972484,1.6095924011248077,-0.7636081993354588
0.08489461525747646,1.6095660310586397,-0.7642012536229509
0.08550536788522808,1.6095390604178974,-0.7647004497199886
0.08611612051297972,1.6095115512904943,-0.7651064800080468
0.08672687314073135,1.6094835639628517,-0.7654200933667089
0.08733762576848299,1.609455156906003,-0.7656420954197364
0.08794837839623461,1.609426386762226,-0.7657733486795921
0.08855913102398623,1.609397308332275,-0.7658147725881218
0.08916988365173786,1.6093679745632605,-0.7657673434518587
0.0897806362794895,1.6093384365372116,-0.7656320942711975
0.09039138890724112,1.609308743460383,-0.7654101144619729
0.09100214153499275,1.6092789426533516,-0.7651025494686245
0.09161289416274439,1.6092490795419638,-0.7647106002676214
0.09222364679049602,1.6092191976491748,-0.7642355227611868
0.09283439941824764,1.6091893385878495,-0.7636786270592079
0.09344515204599926,1.6091595420545588,-0.7630412766510304
0.0940559046737509,1.6091298458244534,-0.7623248874645685
0.09466665730150253,1.6091002857472456,-0.7615309268142667
0.09527740992925417,1.609070895744369,-0.7606609122370107
0.09588816255700579,1.6090417078073669,-0.7597164102168293
0.09649891518475741,1.6090127519975632,-0.7586990347988073
0.09710966781250904,1.608984056447083,-0.7576104460918048
0.09772042044026068,1.608955647361245,-0.7564523486631215
0.09833117306801231,1.6089275490224206,-0.7552264898239003
0.09894192569576393,1.608899783795377,-0.753934657807993
0.09955267832351557,1.6088723721341698,-0.7525786798460746
0.10016343095126719,1.6088453325906298,-0.7511604201357617
0.10077418357901882,1.6088186818244885,-0.7496817777113558
0.10138493620677044,1.6087924346151923,-0.7481446842143352
0.10199568883452208,1.6087666038754342,-0.74655110156842
0.10260644146227371,1.6087412006664532,-0.7449030195613054
0.10321719409002535,1.6087162342151262,-0.7432024533375428
0.10382794671777695,1.608691711932899,-0.7414514408042732
0.10443869934552859,1.608667639436562,-0.7396520399557605
0.10504945197328022,1.6086440205709165,-0.7378063261196136
0.10566020460103186,1.6086208574333403,-0.7359163891291374
0.10627095722878349,1.6085981504002642,-0.7339843304274779
0.10688170985653511,1.608575898155588,-0.7320122601070034
0.10749246248428675,1.6085540977210198,-0.7300022938910689
0.10810321511203837,1.6085327444883561,-0.7279565500618719
0.10871396773979,1.6085118322536978,-0.7258771463411994
0.10932472036754162,1.608491353253582,-0.7237661967300262
0.10993547299529326,1.6084712982030285,-0.7216258083127651
0.11054622562304489,1.6084516563354734,-0.7194580780329675
0.11115697825079653,1.6084324154445666,-0.7172650894468785
0.11176773087854816,1.6084135619278066,-0.7150489094619329
0.11237848350629977,1.608395080831966,-0.7128115850668769
0.1129892361340514,1.608376955900272,-0.7105551400611778
0.11359998876180304,1.6083591696213009,-0.7082815717902
0.11421074138955467,1.6083417032795169,-0.7059928478940598
0.11482149401730629,1.6083245370074104,-0.7036909030780985
0.11543224664505793,1.6083076498391609,-0.7013776359109919
0.11604299927280955,1.6082910197657634,-0.6990549056600108
0.11665375190056118,1.6082746237915369,-0.6967245291694407
0.1172645045283128,1.6082584379919378,-0.6943882777905447
0.11787525715606444,1.6082424375725908,-0.692047874370459
0.11848600978381607,1.60822659692945,-0.6897049903076353
0.1190967624115677,1.6082108897099927,-0.6873612426810087
0.11970751503931934,1.608195288875352,-0.6850181914604284
0.12031826766707095,1.60817976676328,-0.6826773368055458
0.12092902029482258,1.6081642951518407,-0.6803401164601827
0.12153977292257422,1.6081488453237247,-0.6780079032487308
0.12215052555032585,1.6081333881310589,-0.6756820026821941
0.12276127817807747,1.608117894060619,-0.6733636506792112
0.1233720308058291,1.6081023332993118,-0.671054011408662
0.12398278343358073,1.6080866757998098,-0.668754175260373
0.12459353606133236,1.6080708913462216,-0.6664651569487967
0.125204288689084,1.608054949619674,-0.6641878937554404
0.1258150413168356,1.6080388202636835,-0.6619232439149323
0.12642579394458725,1.6080224729491936,-0.6596719851493893
0.12703654657233887,1.6080058774391568,-0.657434813355504
0.12764729920009052,1.6079890036525304,-0.655212341448622
0.12825805182784214,1.6079718217275807,-0.6530050983666507
0.12886880445559376,1.6079543020843552,-0.6508135282375732
0.1294795570833454,1.6079364154862195,-0.648637989713076
0.13009030971109703,1.60791813310033,-0.6464787554711746
0.13070106233884865,1.6078994265569342,-0.6443360118888013
0.13131181496660027,1.6078802680073843,-0.6422098588868591
0.13192256759435192,1.6078606301807514,-0.6401003099485915
0.13253332022210354,1.6078404864389404,-0.6380072923110338
0.1331440728498552,1.6078198108301929,-0.6359306473315643
0.13375482547760678,1.607798578140887,-0.6338701310275617
0.13436557810535843,1.6077767639455423,-0.631825414789544
0.13497633073311005,1.6077543446549192,-0.6297960862666132
0.1355870833608617,1.607731297562155,-0.6277816504226392
0.13619783598861332,1.6077076008868327,-0.6257815307610535
0.13680858861636494,1.6076832338169174,-0.6237950707165834
0.13741934124411656,1.607658176548481,-0.6218215352104833
0.13803009387186818,1.6076324103231607,-0.6198601123668309
0.13864084649961983,1.6076059174632762,-0.6179099153862394
0.13925159912737145,1.6075786814045605,-0.6159699845731277
0.1398623517551231,1.607550686726451,-0.6140392895119515
0.14047310438287472,1.6075219191798973,-0.6121167313891239
0.14108385701062634,1.607492365712645,-0.6102011454543407
0.141694609638378,1.6074620144919636,-0.6082913036177194
0.1423053622661296,1.607430854924795,-0.6063859171752823
0.14291611489388123,1.607398877675295,-0.6044836396596198
0.14352686752163288,1.6073660746797531,-0.6025830698075503
0.1441376201493845,1.6073324391588866,-0.6006827546401322
0.14474837277713615,1.6072979656274928,-0.598781192647405
0.14535912540488774,1.6072626499014677,-0.5968768370725495
0.14596987803263936,1.607226489102198,-0.5949680992871634
0.146580630660391,1.6071894816583288,-0.593053352252041
0.14719138328814263,1.6071516273049324,-0.5911309340552602
0.14780213591589428,1.607112927080093,-0.5891991515209352
0.1484128885436459,1.6070733833189381,-0.5872562838808332
0.14902364117139752,1.6070329996451398,-0.5853005865016719
0.14963439379914917,1.6069917809599286,-0.5833302946598214
0.1502451464269008,1.606949733428657,-0.5813436273567949
0.15085589905465244,1.6069068644649536,-0.5793387911667691
0.15146665168240406,1.6068631827125182,-0.5773139841082968
0.15207740431015568,1.6068186980246086,-0.575267399533674
0.15268815693790733,1.6067734214412759,-0.5731972300265774
0.15329890956565892,1.6067273651644063,-0.5711016713005307
0.15390966219341054,1.6066805425306312,-0.5689789260912315
0.1545204148211622,1.6066329679821691,-0.5668272080335421
0.1551311674489138,1.6065846570356777,-0.5646447455165506
0.15574192007666546,1.606535626249175,-0.5624297855077327
0.15635267270441708,1.606485893187111,-0.5601805973402819
0.1569634253321687,1.6064354763836652,-0.5578954764539129
0.15757417795992035,1.6063843953043553,-0.5555727480831878
0.15818493058767197,1.6063326703060234,-0.553210770885374
0.15879568321542362,1.6062803225953053,-0.5508079405003052
0.15940643584317524,1.6062273741856463,-0.5483626930354774
0.16001718847092686,1.6061738478529697,-0.5458735084689479
0.1606279410986785,1.6061197670900764,-0.5433389139633797
0.1612386937264301,1.6060651560598718,-0.5407574870840867
0.16184944635418172,1.6060100395475074,-0.538127858914946
0.16246019898193337,1.6059544429115404,-0.5354487170649574
0.163070951609685,1.6058983920341927,-0.532718808560336
0.16368170423743664,1.6058419132708197,-0.529936942614615
0.16429245686518826,1.605785033398673,-0.5271019932720783
0.16490320949293988,1.605727779565067,-0.5242129019180011
0.16551396212069153,1.6056701792350359,-0.5212686796509821
0.16612471474844315,1.6056122601385896,-0.5182684095112664
0.1667354673761948,1.6055540502176635,-0.5152112485606827
0.16734622000394642,1.605495577572864,-0.5120964298093137
0.16795697263169804,1.6054368704101056,-0.5089232639844151
0.16856772525944969,1.60537795698725,-0.5056911411368394
0.16917847788720128,1.6053188655608306,-0.5023995320819322
0.16978923051495293,1.6052596243329824,-0.4990479896704988
0.17039998314270455,1.605200261398662,-0.4956361498866301
0.17101073577045617,1.6051408046932596,-0.49216373276963876
0.17162148839820782,1.6050812819407105,-0.4886305431568557
0.17223224102595944,1.6050217206021942,-0.48503647124545124
0.17284299365371106,1.6049621478255232,-0.481381492970299
0.1734537462814627,1.604902590395317,-0.4776656701971983
0.17406449890921433,1.6048430746840563,-0.4738891507293323
0.17467525153696598,1.6047836266041138,-0.47005216812618356
0.1752860041647176,1.6047242715608503,-0.46615504133407437
0.17589675679246922,1.6046650344068691,-0.4621981741283241
0.17650750942022086,1.604605939397521,-0.4581820543667765
0.17711826204797246,1.604547010147741,-0.4541072530555624
0.1777290146757241,1.6044882695903107,-0.449974423227392
0.17833976730347573,1.6044297399356202,-0.4457842986345905
0.17895051993122735,1.604371442633018,-0.4415376922573594
0.179561272558979,1.6043133983338238,-0.437235494630583
0.18017202518673062,1.6042556268560821,-0.4328786719905574
0.18078277781448224,1.6041981471511246,-0.4284682642457155
0.18139353044223389,1.6041409772720168,-0.42400538277363237
0.1820042830699855,1.6040841343439514,-0.41949120804879114
0.18261503569773715,1.6040276345366542,-0.4149269871049202
0.18322578832548878,1.6039714930388576,-0.4103140308368016
0.1838365409532404,1.6039157240349025,-0.4056537111463737
0.18444729358099204,1.6038603406835157,-0.4009474579383367
0.18505804620874364,1.603805355098815,-0.39619675597157555
0.18566879883649529,1.6037507783335758,-0.39140314157256234
0.1862795514642469,1.6036966203648135,-0.38656819921639646
0.18689030409199853,1.6036428900816984,-0.3816935579844472
0.18750105671975018,1.603589595275845,-0.37678088790333336
0.1881118093475018,1.6035367426339961,-0.3718318961756646
0.18872256197525342,1.6034843377331183,-0.3668483233087186
0.18933331460300507,1.6034323850379264,-0.3618319391499296
0.18994406723075669,1.603380887900849,-0.3567845388383095
0.19055481985850833,1.6033298485644314,-0.3517079386802947
0.19116557248625995,1.6032792681661776,-0.3466039719598923
0.19177632511401158,1.6032291467458297,-0.3414744846915679
0.19238707774176322,1.603179483255064,-0.3363213313270878
0.19299783036951482,1.603130275569591,-0.3311463704248719
0.19360858299726647,1.6030815205036304,-0.3259514602933134
0.19421933562501809,1.6030332138267416,-0.32073845461735984
0.1948300882527697,1.6029853502829623,-0.31550919807908473
0.19544084088052135,1.6029379236122274,-0.31026552198365
0.19605159350827298,1.6028909265740099,-0.3050092398998983
0.19666234613602462,1.6028443509731454,-0.29974214332757987
0.19727309876377624,1.602798187687773,-0.2944659974010211
0.19788385139152787,1.6027524266993378,-0.2891825366406796
0.1984946040192795,1.6027070571245834,-0.28389346076272215
0.19910535664703113,1.6026620672494654,-0.27860043055790146
0.19971610927478275,1.6026174445649097,-0.2733050638494872
0.20032686190253438,1.6025731758043305,-0.26800893154138933
0.200937614530286,1.6025292469828272,-0.2627135537662778
0.20154836715803764,1.6024856434379648,-0.2574203961443064
0.20215911978578927,1.6024423498720475,-0.25213086616176783
0.20276987241354089,1.602399350395786,-0.24684630967935217
0.20338062504129253,1.6023566285732567,-0.2415680075800448
0.20399137766904415,1.6023141674680486,-0.23629717256498736
0.2046021302967958,1.6022719496904902,-0.23103494610602626
0.20521288292454742,1.6022299574458403,-0.22578239556446789
0.20582363555229904,1.60218817258334,-0.2205405114820812
0.2064343881800507,1.6021465766460012,-0.2153102050540727
