frequency,refractiveIndex,absorption
0.0006107526277516292,1.6641058959925465,7.484350442302187e-05
0.0012215052555032584,1.6641047802264586,0.0002990904084407214
0.0018322578832548875,1.6641029426737288,0.0006718916531350871
0.002443010511006517,1.6641004160878483,0.0011918380110617446
0.003053763138758146,1.66409724566453,0.0018569688041725724
0.003664515766509775,1.664093488396459,0.0026647839348598957
0.004275268394261404,1.6640892122632849,0.003612259061508532
0.004886021022013034,1.6640844952707585,0.00469586370927587
0.005496773649764663,1.6640794243553179,0.005911582071412082
0.006107526277516292,1.6640740941724084,0.007254936227049718
0.006718278905267922,1.6640686057882932,0.008721011478454537
0.00732903153301955,1.6640630652961197,0.010304483494796735
0.00793978416077118,1.664057582377685,0.011999646940306035
0.008550536788522809,1.664052268832313,0.013800445262482626
0.009161289416274438,1.6640472370940256,0.015700501320142227
0.009772042044026067,1.6640425987574614,0.017693148541230132
0.010382794671777697,1.6640384631317882,0.019771462315702783
0.010993547299529326,1.6640349358405973,0.02192829134888299
0.011604299927280955,1.664032117483941,0.024156288723901253
0.012215052555032585,1.6640301023770248,0.026447942448995343
0.012825805182784214,1.6640289773778139,0.028795605292838394
0.013436557810535843,1.664028820813967,0.031191523741172348
0.014047310438287471,1.6640297015173262,0.03362786593741649
0.0146580630660391,1.664031677972078,0.036096748498767664
0.015268815693790731,1.664034797580778,0.0385902621277842
0.01587956832154236,1.6640390960505316,0.04110049596531702
0.01649032094929399,1.6640445968998083,0.04361956065504634
0.017101073577045618,1.6640513110848825,0.0461396101118633
0.01771182620479725,1.664059236743315,0.0486528620047227
0.018322578832548876,1.6640683590508616,0.051151616981942274
0.018933331460300507,1.664078650186974,0.053628276679593224
0.019544084088052135,1.6640900694032486,0.056075360564653384
0.020154836715803762,1.6641025631885906,0.058485521672962566
0.020765589343555393,1.6641160655242093,0.06085156130714143
0.02137634197130702,1.6641304982212768,0.06316644276311825
0.021987094599058652,1.6641457713339038,0.06542330415533137
0.02259784722681028,1.6641617836399472,0.06761547040981529
0.02320859985456191,1.6641784231821826,0.06973646449215931
0.023819352482313542,1.6641955678625444,0.07178001793415967
0.02443010511006517,1.6642130860823272,0.07374008071835914
0.025040857737816797,1.6642308374214254,0.07561083057411001
0.025651610365568428,1.664248673350132,0.07738668173320994
0.026262362993320056,1.6642664379672087,0.07906229318665271
0.026873115621071687,1.664283968758461,0.08063257647757066
0.027483868248823314,1.6643010973702732,0.08209270305865615
0.028094620876574942,1.664317650393146,0.0834381112368537
0.028705373504326573,1.6643334501504388,0.08466451271972855
0.0293161261320782,1.6643483154880978,0.08576789877498527
0.029926878759829835,1.6643620625613904,0.08674454600614538
0.030537631387581463,1.6643745056150945,0.08759102174420953
0.03114838401533309,1.6643854577538502,0.08830418904968974
0.03175913664308472,1.664394731699804,0.08888121131575225
0.03236988927083635,1.6644021405348017,0.08931955645899341
0.03298064189858798,1.6644074984248751,0.0896170006823418
0.03359139452633961,1.664410621324798,0.0897716317915542
0.034202147154091235,1.6644113276608739,0.08978185204480386
0.03481289978184286,1.6644094389902602,0.0896463805142762
0.0354236524095945,1.664404780635323,0.08936425493678454
0.036034405037346125,1.664397182291727,0.08893483303123455
0.03664515766509775,1.6643864786090798,0.0883577932598967
0.03725591029284938,1.6643725097431468,0.08763313501193944
0.037866662920601014,1.6643551218787411,0.08676117818785738
0.038477415548352635,1.6643341677225199,0.08574256216498585
0.03908816817610427,1.6643095069650884,0.08457824412667993
0.039698920803855904,1.664281006711832,0.08326949673862766
0.040309673431607525,1.6642485418820625,0.08181790515869601
0.04092042605935916,1.6642119955761134,0.0802253633689264
0.04153117868711079,1.6641712594101632,0.07849406982141767
0.04214193131486242,1.6641262338185505,0.07662652239190416
0.04275268394261404,1.664076828323566,0.07462551263868465
0.04336343657036568,1.664022961772636,0.07249411936691538
0.043974189198117304,1.6639645625430124,0.07023570150217999
0.04458494182586893,1.6639015687140606,0.06785389027938908
0.04519569445362056,1.66383392820741,0.0653525807578349
0.045806447081372194,1.6637615988951997,0.06273592267497408
0.04641719970912382,1.663684548676813,0.06000831065517326
0.04702795233687545,1.6636027555244923,0.057174373793522616
0.047638704964627084,1.6635162074983774,0.05423896463650732
0.048249457592378704,1.6634249027314845,0.05120714758542646
0.04886021022013034,1.6633288493852878,0.04808418675049379
0.049470962847881966,1.6632280655765976,0.04487553328663935
0.050081715475633594,1.6631225792764912,0.04158681224431921
0.05069246810338522,1.6630124281821288,0.03822380897112286
0.051303220731136856,1.662897659562337,0.03479245510177301
0.05191397335888848,1.6627783300779029,0.03129881417640556
0.05252472598664011,1.662654505577579,0.027749066928674
0.053135478614391746,1.662526260870841,0.024149496286292964
0.05374623124214337,1.6623936794785168,0.02050647212904718
0.054356983869895,1.6622568533623865,0.016826435848202658
0.05496773649764663,1.6621158826350024,0.013115884755305486
0.05557848912539826,1.6619708752508673,0.009381356385030662
0.056189241753149884,1.661821946680297,0.005629412740964047
0.05679999438090152,1.6616692195671885,0.001866624530152586
0.057410747008653146,1.6615128233720453,-0.0019004445653593382
0.05802149963640477,1.6613528940015274,-0.005665253534237454
0.0586322522641564,1.6611895734259061,-0.009421299551585516
0.059243004891908035,1.6610230092857454,-0.01316213331958101
0.05985375751965967,1.6608533544891422,-0.016881374188783622
0.06046451014741129,1.660680766800905,-0.020572725015405476
0.061075262775162925,1.6605054084249833,-0.024229986713150728
0.06168601540291455,1.6603274455814732,-0.027847072459221283
0.06229676803066618,1.6601470480795517,-0.03141802151336449
0.0629075206584178,1.6599643888875826,-0.03493701261481984
0.06351827328616944,1.6597796437017103,-0.038398376919408395
0.06412902591392107,1.659592990514167,-0.041796610444274566
0.0647397785416727,1.6594046091825032,-0.045126385988227435
0.06535053116942433,1.6592146810009447,-0.04838256449763962
0.06596128379717596,1.6590233882749945,-0.05156020585133186
0.0665720364249276,1.6588309139003945,-0.05465457903887397
0.06718278905267921,1.6586374409475173,-0.05766117170937034
0.06779354168043085,1.6584431522521854,-0.060575699070473006
0.06840429430818247,1.658248230013892,-0.0633941121196586
0.06901504693593409,1.658052855402357,-0.06611260519127551
0.06962579956368573,1.657857208173267,-0.06872762280671735
0.07023655219143736,1.6576614662940292,-0.07123586581633835
0.070847304819189,1.6574658055803098,-0.07363429682368292
0.07145805744694061,1.6572703993440432,-0.07592014488711156
0.07206881007469225,1.6570754180536191,-0.07809090949221258
0.07267956270244387,1.6568810290067961,-0.08014436379524867
0.0732903153301955,1.6566873960169446,-0.08207855713603461
0.07390106795794714,1.656494679113085,-0.08389181682321367
0.07451182058569876,1.6563030342541905,-0.08558274919543221
0.0751225732134504,1.6561126130581363,-0.08715023996516948
0.07573332584120203,1.655923562545651,-0.08859345385227267
0.07634407846895366,1.6557360248995514,-0.08991183351790441
0.07695483109670527,1.6555501372395292,-0.09110509780921505
0.0775655837244569,1.6553660314126708,-0.09217323932861915
0.07817633635220854,1.6551838337998794,-0.09311652134153542
0.07878708897996017,1.6550036651382904,-0.09393547403950979
0.07939784160771181,1.6548256403597725,-0.09463089017503183
0.08000859423546343,1.6546498684455264,-0.09520382008765775
0.08061934686321505,1.6544764522967712,-0.09565556614063662
0.08123009949096668,1.6543054886214659,-0.09598767658987128
0.08184085211871832,1.6541370678369947,-0.09620193890623069
0.08245160474646994,1.6539712739886734,-0.09630037257560654
0.08306235737422157,1.6538081846839516,-0.09628522139943092
0.08367311000197321,1.6536478710420979,-0.09615894532129966
0.08428386262972484,1.6534903976591921,-0.09592421180488153
0.08489461525747646,1.6533358225881467,-0.09558388678953597
0.08550536788522808,1.6531841973335257,-0.09514102525026559
0.08611612051297972,1.6530355668608503,-0.09459886138983356
0.08672687314073135,1.6528899696200914,-0.0939607984901439
0.08733762576848299,1.6527474375830027,-0.0932303984527061
0.08794837839623461,1.6526079962939595,-0.0924113710546335
0.08855913102398623,1.6524716649339057,-0.09150756295186442
0.08916988365173786,1.6523384563970487,-0.09052294645612272
0.0897806362794895,1.6522083773798697,-0.08946160811719306
0.09039138890724112,1.6520814284820393,-0.08832773713923361
0.09100214153499275,1.6519576043188064,-0.08712561366009065
0.09161289416274439,1.651836893644409,-0.08585959692474782
0.09222364679049602,1.651719279486034,-0.08453411338161775
0.09283439941824764,1.65160473928788,-0.08315364473098849
0.09344515204599926,1.6514932450648154,-0.08172271595598281
0.0940559046737509,1.6513847635651522,-0.08024588336478135
0.09466665730150253,1.6512792564420444,-0.07872772267248429
0.09527740992925417,1.651176680432977,-0.07717281715304239
0.09588816255700579,1.6510769875468572,-0.07558574588758377
0.09649891518475741,1.650980125258178,-0.07397107213882528
0.09710966781250904,1.65088603670772,-0.07233333187798252
0.09772042044026068,1.6507946609092685,-0.07067702249172739
0.09833117306801231,1.6507059329618097,-0.06900659169583846
0.09894192569576393,1.6506197842666708,-0.06732642668076286
0.09955267832351557,1.6505361427490475,-0.06564084351498538
0.10016343095126719,1.6504549330834009,-0.06395407683033584
0.10077418357901882,1.6503760769221585,-0.062270269812932905
0.10138493620677044,1.6502994931271906,-0.06059346452276054
0.10199568883452208,1.6502250980035071,-0.0589275925640079
0.10260644146227371,1.6501528055346455,-0.0572764661268218
0.10321719409002535,1.6500825276192002,-0.055643769421114916
0.10382794671777695,1.6500141743079666,-0.05403305052105782
0.10443869934552859,1.6499476540411588,-0.05244771363838384
0.10504945197328022,1.649882873885187,-0.0508910118411043
0.10566020460103186,1.649819739768456,-0.04936604023396721
0.10627095722878349,1.649758156715692,-0.047875729614026696
0.10688170985653511,1.6496980290802783,-0.046422840615266775
0.10749246248428675,1.649639260774101,-0.045009958353936216
0.10810321511203837,1.6495817554944334,-0.043639487584737416
0.10871396773979,1.6495254169473683,-0.04231364837710739
0.10932472036754162,1.6494701490673365,-0.041034472320017466
0.10993547299529326,1.6494158562322716,-0.03980379925999659
0.11054622562304489,1.6493624434739689,-0.03862327457843903
0.11115697825079653,1.6493098166832258,-0.03749434701134149
0.11176773087854816,1.64925788280936,-0.036418267012419576
0.11237848350629977,1.6492065500537048,-0.03539608566081734
0.1129892361340514,1.649155728056722,-0.03442865411190107
0.11359998876180304,1.6491053280783743,-0.03351662358813671
0.11421074138955467,1.6490552631714306,-0.032660445906100004
0.11482149401730629,1.649005448347376,-0.03186037453411378
0.11543224664505793,1.6489558007346559,-0.031116466172637705
0.11604299927280955,1.648906239728974,-0.030428582849430754
0.11665375190056118,1.6488566871353936,-0.029796394519248703
0.1172645045283128,1.648807067302032,-0.029219382156425614
0.11787525715606444,1.6487573072451347,-0.0286968413274438
0.11848600978381607,1.6487073367653646,-0.028227886230147128
0.1190967624115677,1.6486570885551461,-0.02781145418304817
0.11970751503931934,1.6486064982969488,-0.02744631054903718
0.12031826766707095,1.6485555047523976,-0.027131054075491313
0.12092902029482258,1.6485040498421455,-0.026864122631824347
0.12153977292257422,1.6484520787164507,-0.026643799324410047
0.12215052555032585,1.648399539816435,-0.026468218969014225
0.12276127817807747,1.6483463849260245,-0.026335374898075508
0.1233720308058291,1.6482925692145964,-0.026243126080214316
0.12398278343358073,1.648238051270384,-0.026189204530040474
0.12459353606133236,1.648182793124706,-0.02617122298322644
0.125204288689084,1.648126760267126,-0.026186682812490994
0.1258150413168356,1.6480699216516608,-0.02623298216027804
0.12642579394458725,1.6480122496941707,-0.026307424262737404
0.12703654657233887,1.6479537202611154,-0.02640722593833736
0.12764729920009052,1.647894312649839,-0.02652952621696211
0.12825805182784214,1.6478340095606074,-0.0266713950827554
0.12886880445559376,1.6477727970606146,-0.02682984230430747
0.1294795570833454,1.647710664540202,-0.027001826327283842
0.13009030971109703,1.6476476046615531,-0.027184263203258667
0.13070106233884865,1.6475836133001356,-0.02737403552886412
0.13131181496660027,1.6475186894791882,-0.027568001370729303
0.13192256759435192,1.647452835297553,-0.027763003150941514
0.13253332022210354,1.6473860558511702,-0.027955876468303456
0.1331440728498552,1.6473183591485683,-0.028143458832335475
0.13375482547760678,1.6472497560206876,-0.028322598285566457
0.13436557810535843,1.6471802600253818,-0.028490161892858988
0.13497633073311005,1.6471098873469536,-0.028643044074483454
0.1355870833608617,1.6470386566910955,-0.028778174762570777
0.13619783598861332,1.6469665891755878,-0.02889252736049625
0.13680858861636494,1.6468937082171367,-0.028983126485945154
0.13741934124411656,1.6468200394147223,-0.02904705547802066
0.13803009387186818,1.6467456104298293,-0.02908146365275876
0.13864084649961983,1.6466704508639372,-0.029083573288820882
0.13925159912737145,1.6465945921336504,-0.02905068632844543
0.1398623517551231,1.6465180673438238,-0.028980190779582426
0.14047310438287472,1.6464409111590792,-0.028869566805194466
0.14108385701062634,1.6463631596740507,-0.028716392487500436
0.141694609638378,1.6462848502827392,-0.02851834925665527
0.1423053622661296,1.6462060215473204,-0.02827322697290554
0.14291611489388123,1.6461267130667576,-0.02797892865399013
0.14352686752163288,1.6460469653455578,-0.02763347483968914
0.1441376201493845,1.6459668196630033,-0.0272350075864478
0.14474837277713615,1.6458863179431786,-0.026781794087677713
0.14535912540488774,1.645805502626109,-0.02627222991407271
0.14596987803263936,1.6457244165403107,-0.025704841870982976
0.146580630660391,1.645643102777044,-0.025078290471063008
0.14719138328814263,1.645561604566546,-0.024391372020112073
0.14780213591589428,1.645479965156518,-0.023643020316833768
0.1484128885436459,1.6453982276931147,-0.02283230796652889
0.14902364117139752,1.6453164351046856,-0.021958447311234856
0.14963439379914917,1.645234629988492,-0.021020790978532808
0.1502451464269008,1.645152854500621,-0.020018832053390088
0.15085589905465244,1.6450711502492994,-0.018952203876998426
0.15146665168240406,1.644989558191799,-0.017820679478336633
0.15207740431015568,1.6449081185351064,-0.016624170644972815
0.15268815693790733,1.644826870640524,-0.015362726640493476
0.15329890956565892,1.6447458529323544,-0.014036532575046187
0.15390966219341054,1.6446651028107997,-0.012645907439689888
0.1545204148211622,1.6445846565691995,-0.011191301811715125
0.1551311674489138,1.6445045493157278,-0.009673295242990005
0.15574192007666546,1.6444248148996263,-0.008092593339754896
0.15635267270441708,1.6443454858420794,-0.0064500245470426815
0.1569634253321687,1.644266593271784,-0.00474653664750892
0.15757417795992035,1.644188166865288,-0.002983192988540089
0.15818493058767197,1.6441102347921328,-0.0011611684488652646
0.15879568321542362,1.644032823664839,0.0007182548412876557
0.15940643584317524,1.6439559584937564,0.002653692013332823
0.16001718847092686,1.6438796626467918,0.004643660193526386
0.1606279410986785,1.6438039578140133,0.0066865834409545405
0.1612386937264301,1.6437288639771155,0.00878079787715336
0.16184944635418172,1.6436543993837334,0.01092455699160864
0.16246019898193337,1.6435805805265657,0.013116037109444856
0.163070951609685,1.6435074221272672,0.015353343004805899
0.16368170423743664,1.6434349371250627,0.017634513646237446
0.16429245686518826,1.6433631366700159,0.01995752805804685
0.16490320949293988,1.6432920301208915,0.022320311281773295
0.16551396212069153,1.6432216250475236,0.02472074042362387
0.16612471474844315,1.6431519272376138,0.027156650771423287
0.1667354673761948,1.6430829407078555,0.029625841965667584
0.16734622000394642,1.6430146677192936,0.03212608421036305
0.16795697263169804,1.6429471087967964,0.03465512450664455
0.16856772525944969,1.6428802627525445,0.03721069289580921
0.16917847788720128,1.642814126713392,0.03979050869524136
0.16978923051495293,1.6427486961519928,0.04239228671311576
0.17039998314270455,1.6426839649215397,0.04501374342687452
0.17101073577045617,1.6426199252939957,0.047652603111052405
0.17162148839820782,1.6425565680016554,0.050306603900406775
0.17223224102595944,1.6424938822819017,0.05297350377365263
0.17284299365371106,1.6424318559249964,0.05565108644490862
0.1734537462814627,1.6423704753247477,0.05833716714933575
0.17406449890921433,1.6423097255319006,0.06102959830934978
0.17467525153696598,1.642249590310073,0.06372627506918842
0.1752860041647176,1.6421900521940864,0.06642514068591794
0.17589675679246922,1.6421310925505048,0.06912419176429015
0.17650750942022086,1.6420726916402195,0.07182148332432141
0.17711826204797246,1.6420148286829044,0.07451513369094784
0.1777290146757241,1.6419574819231626,0.07720332919485301
0.17833976730347573,1.6419006286981872,0.07988432867485531
0.17895051993122735,1.6418442455067637,0.08255646777189518
0.179561272558979,1.641788308079425,0.08521816300668648
0.18017202518673062,1.6417327914495934,0.08786791563127004
0.18078277781448224,1.6416776700255167,0.09050431524822761
0.18139353044223389,1.6416229176628312,0.09312604318925018
0.1820042830699855,1.6415685077375701,0.09573187564728496
0.18261503569773715,1.6415144132194373,0.09832068655551536
0.18322578832548878,1.6414606067451805,0.10089145020891353
0.1838365409532404,1.64140706069188,0.10344324362250741
0.18444729358099204,1.6413537472499955,0.1059752486235171
0.18505804620874364,1.6413006384959918,0.10848675367349375
0.18566879883649529,1.641247706464382,0.1109771554171272
0.1862795514642469,1.6411949232190308,0.11344595995753608
0.18689030409199853,1.6411422609235555,0.11589278385481575
0.18750105671975018,1.6410896919106692,0.11831735484817228
0.1881118093475018,1.6410371887503241,0.12071951230205613
0.18872256197525342,1.6409847243164994,0.1230992073759419
0.18933331460300507,1.6409322718525015,0.12545650292000643
0.18994406723075669,1.6408798050346374,0.12779157309904704
0.19055481985850833,1.6408272980341352,0.13010470274609728
0.19116557248625995,1.6407747255771823,0.13239628645055337
0.19177632511401158,1.6407220630029689,0.13466682738437316
0.19238707774176322,1.6406692863196206,0.13691693587020404
0.19299783036951482,1.6406163722579208,0.13914732769858562
0.19360858299726647,1.6405632983227147,0.14135882219797238
0.19421933562501809,1.6405100428419155,0.14355234006564963
0.1948300882527697,1.640456585013016,0.14572890096609326
0.19544084088052135,1.640402904947037,0.14788962090359514
0.19605159350827298,1.640348983709837,0.1500357093789747
0.19666234613602462,1.6402948033607248,0.1521684663367376
0.19727309876377624,1.6402403469883118,0.15428927891374786
0.19788385139152787,1.6401855987435712,0.15639961799753122
0.1984946040192795,1.6401305438700413,0.1585010346045725
0.19910535664703113,1.6400751687311665,0.16059515608905328
0.19971610927478275,1.6400194608347307,0.16268368219170082
0.20032686190253438,1.639963408854374,0.16476838094157537
0.200937614530286,1.639907002648187,0.1668510844190381
0.20154836715803764,1.6398502332743714,0.16893368439419676
0.20215911978578927,1.63979309300398,0.17101812785072174
0.20276987241354089,1.6397355753307468,0.17310641240703964
0.20338062504129253,1.639677674978023,0.1752005816472652
0.20399137766904415,1.6396193879028536,0.17730272037381511
0.2046021302967958,1.63956071129722,0.17941494979294045
