frequency,refractiveIndex,absorption
0.0006107526277516292,2.4270551196660084,0.007218577352660659
0.0012215052555032584,2.4242985359159945,0.02877566425161309
0.0018322578832548875,2.4197495773774826,0.06437922992287576
0.002443010511006517,2.413474251569105,0.11355524423340993
0.003053763138758146,2.4055611207847933,0.1756656095335683
0.003664515766509775,2.396117846665728,0.24993122628489894
0.004275268394261404,2.3852672455260078,0.3354584935106593
0.004886021022013034,2.373143132104183,0.43126746537788324
0.005496773649764663,2.3598862093077755,0.5363199949893239
0.006107526277516292,2.345640218639074,0.64954645058927
0.006718278905267922,2.330548510083821,0.7698699293835424
0.00732903153301955,2.314751130860958,0.8962272618580885
0.00793978416077118,2.29838247727555,1.0275864470457896
0.008550536788522809,2.281569508042319,1.1629604543189032
0.009161289416274438,2.264430483225432,1.3014175536892962
0.009772042044026067,2.2470741705415156,1.4420884914385637
0.010382794671777697,2.229599448875337,1.5841709177132905
0.010993547299529326,2.2120952353534427,1.7269315092678885
0.011604299927280955,2.194640664884442,1.8697062273724858
0.012215052555032585,2.1773054575432718,2.0118991209950545
0.012825805182784214,2.160150417756614,2.152980039758847
0.013436557810535843,2.1432280185820405,2.2924815684505067
0.014047310438287471,2.1265830335291325,2.429995441136797
0.0146580630660391,2.110253186767441,2.565168642234507
0.015268815693790731,2.094269799899204,2.6976993564606127
0.01587956832154236,2.078658419635287,2.8273328905161965
0.01649032094929399,2.0634394157211258,2.9538576568206585
0.017101073577045618,2.0486285424106865,3.0771012832699416
0.01771182620479725,2.034237459815121,3.1969268922054663
0.018322578832548876,2.0202742137043748,3.313229575774058
0.018933331460300507,2.0067436739574283,3.425933082839739
0.019544084088052135,1.9936479329699925,3.5349867238193813
0.020154836715803762,1.9809866660501483,3.640362493581008
0.020765589343555393,1.9687574562582688,3.7420524082816486
0.02137634197130702,1.9569560863549493,3.8400660492435486
0.021987094599058652,1.945576800572534,3.9344283052773488
0.02259784722681028,1.9346125388705557,4.025177303939836
0.02320859985456191,1.9240551462108086,4.11236252182168
0.023819352482313542,1.9138955592218074,4.196043063909299
0.02443010511006517,1.9041239724359018,4.2762861022204754
0.025040857737816797,1.8947299860896356,4.3531654641817665
0.025651610365568428,1.8857027372893644,4.426760361530892
0.026262362993320056,1.8770310161658397,4.4971542508519144
0.026873115621071687,1.8687033684771952,4.564433817162078
0.027483868248823314,1.860708185971363,4.628688072257959
0.028094620876574942,1.8530337856865644,4.690007559794243
0.028705373504326573,1.845668479251702,4.748483659316722
0.0293161261320782,1.8386006331460052,4.804207981707299
0.029926878759829835,1.8318187207874932,4.8572718487329025
0.030537631387581463,1.825311367241324,4.907765849627601
0.03114838401533309,1.8190673872699727,4.955779467885678
0.03175913664308472,1.8130758173861075,5.001400771706779
0.03236988927083635,1.807325942514498,5.044716161813188
0.03298064189858798,1.8018073178201917,5.085810170657285
0.03359139452633961,1.7965097862155077,5.124765307351401
0.034202147154091235,1.7914234920173546,5.1616619429802535
0.03481289978184286,1.7865388911882982,5.196578231295974
0.0354236524095945,1.781846758559305,5.22959006014218
0.036034405037346125,1.7773381923987999,5.260771029304545
0.03664515766509775,1.773004616661291,5.290192450833738
0.03725591029284938,1.7688377812192768,5.317923368232045
0.037866662920601014,1.7648297603543333,5.3440305912311095
0.038477415548352635,1.7609729497570172,5.368578743213109
0.03908816817610427,1.7572600622606958,5.39163031863959
0.039698920803855904,1.7536841225112916,5.413245748146057
0.040309673431607525,1.7502384607535775,5.43348346923957
0.04092042605935916,1.7469167058946298,5.452400000794029
0.04153117868711079,1.7437127779867063,5.470050019779319
0.04214193131486242,1.7406208802548506,5.486486438879956
0.04275268394261404,1.7376354907790157,5.5017604838614655
0.04336343657036568,1.7347513539264,5.515921769725166
0.043974189198117304,1.7319634716168784,5.529018374857304
0.04458494182586893,1.7292670944928816,5.541096912526823
0.04519569445362056,1.7266577130546916,5.552202599217822
0.045806447081372194,1.7241310488129198,5.5623793193994056
0.04641719970912382,1.7216830455016636,5.571669686439779
0.04702795233687545,1.7193098603886159,5.580115099460162
0.047638704964627084,1.7170078557119766,5.587755796003976
0.048249457592378704,1.7147735902684729,5.594630900464142
0.04886021022013034,1.7126038111718596,5.600778468268751
0.049470962847881966,1.710495445797147,5.6062355258769445
0.050081715475633594,1.7084455939221053,5.611038106676122
0.05069246810338522,1.70645152007455,5.615221282908708
0.051303220731136856,1.7045106460912813,5.618819193783931
0.05191397335888848,1.7026205438923068,5.621865069953751
0.05252472598664011,1.700778928472161,5.624391254551061
0.053135478614391746,1.6989836511085947,5.626429221001392
0.05374623124214337,1.6972326927876376,5.628009587830829
0.054356983869895,1.6955241578430713,5.629162130699344
0.05496773649764663,1.6938562678074798,5.629915791893892
0.05557848912539826,1.6922273554714735,5.630298687516577
0.056189241753149884,1.6906358591471853,5.63033811260424
0.05679999438090152,1.6890803171317752,5.63006054441261
0.057410747008653146,1.6875593623664684,5.629491644095654
0.05802149963640477,1.6860717172864692,5.628656257005107
0.0586322522641564,1.6846161888570252,5.627578411829597
0.059243004891908035,1.6831916637908992,5.626281318785776
0.05985375751965967,1.6817971039425275,5.624787367065822
0.06046451014741129,1.6804315418742053,5.623118121737496
0.061075262775162925,1.6790940765897304,5.621294320284648
0.06168601540291455,1.677783869431065,5.619335868964898
0.06229676803066618,1.6765001401336728,5.617261839154221
0.0629075206584178,1.6752421630363639,5.615090463835699
0.06351827328616944,1.6740092634415937,5.61283913438172
0.06412902591392107,1.6728008141223292,5.610524397767174
0.0647397785416727,1.6716162319717138,5.608161954342232
0.06535053116942433,1.6704549747919426,5.605766656282707
0.06596128379717596,1.6693165382188584,5.6033525068253835
0.0665720364249276,1.6682004527789362,5.600932660386806
0.06718278905267921,1.667106281075427,5.598519423653212
0.06779354168043085,1.666033615100576,5.596124257719984
0.06840429430818247,1.6649820736708951,5.593757781349469
0.06901504693593409,1.6639512999826196,5.591429775406714
0.06962579956368573,1.6629409592845246,5.589149188523763
0.07023655219143736,1.6619507366653858,5.5869241440333965
0.070847304819189,1.6609803349534353,5.584761948206508
0.07145805744694061,1.6600294727252245,5.582669099816505
0.07206881007469225,1.6590978824213731,5.580651301048523
0.07267956270244387,1.6581853085667226,5.578713469761756
0.0732903153301955,1.6572915060924718,5.57685975310641
0.07390106795794714,1.6564162387578967,5.575093542489613
0.07451182058569876,1.6555592776692905,5.573417489877804
0.0751225732134504,1.6547203998937885,5.571833525416134
0.07573332584120203,1.653899387165771,5.570342876339477
0.07634407846895366,1.653096024683533,5.568946087143828
0.07695483109670527,1.6523100999939404,5.5676430409804585
0.0775655837244569,1.651541401962796,5.566432982230866
0.07817633635220854,1.6507897198286314,5.56531454021455
0.07878708897996017,1.6500548423376662,5.564285753977277
0.07939784160771181,1.6493365569576477,5.563344098103391
0.08000859423546343,1.6486346491682933,5.562486509490523
0.08061934686321505,1.6479489018260653,5.561709415022689
0.08123009949096668,1.6472790946009728,5.561008760072281
0.08184085211871832,1.6466250034831058,5.560380037760497
0.08245160474646994,1.64598640035659,5.559818318900437
0.08306235737422157,1.645363052638649,5.559318282546339
0.08367311000197321,1.6447547229814232,5.5588742470689025
0.08428386262972484,1.6441611690342197,5.558480201674922
0.08489461525747646,1.6435821432638251,5.5581298382880115
0.08550536788522808,1.6430173928305145,5.557816583705176
0.08611612051297972,1.6424666595173747,5.557533631943029
0.08672687314073135,1.6419296797105558,5.557273976687113
0.08733762576848299,1.6414061844280374,5.557030443756026
0.08794837839623461,1.6408958993945126,5.556795723493304
0.08855913102398623,1.6403985451599568,5.556562402998417
0.08916988365173786,1.6399138372594677,5.556322998110107
0.0897806362794895,1.6394414864119433,5.556069985054793
0.09039138890724112,1.63898119875516,5.555795831674194
0.09100214153499275,1.6385326761148225,5.5554930281473895
0.09161289416274439,1.638095616305163,5.555154117124188
0.09222364679049602,1.637669713458645,5.554771723188256
0.09283439941824764,1.6372546583823717,5.554338581570229
0.09344515204599926,1.6368501389387786,5.553847566034886
0.0940559046737509,1.636455840448225,5.553291715866147
0.09466665730150253,1.6360714461110957,5.552664261879834
0.09527740992925417,1.6356966374470658,5.55195865139507
0.09588816255700579,1.6353310947491921,5.551168572098817
0.09649891518475741,1.634974497550517,5.55028797474276
0.09710966781250904,1.634626525100923,5.549311094614057
0.09772042044026068,1.634286856851993,5.548232471726714
0.09833117306801231,1.6339551729476738,5.547046969683717
0.09894192569576393,1.6336311547185924,5.545749793165054
0.09955267832351557,1.6333144851779118,5.544336504000744
0.10016343095126719,1.6330048495166711,5.542803035793147
0.10077418357901882,1.632701935596612,5.541145707057624
0.10138493620677044,1.6324054344385377,5.5393612328550565
0.10199568883452208,1.6321150407043485,5.537446734895557
0.10260644146227371,1.631830453170913,5.535399750096966
0.10321719409002535,1.6315513751940638,5.533218237587882
0.10382794671777695,1.631277515161035,5.530900584148968
0.10443869934552859,1.6310085869297601,5.528445608092744
0.10504945197328022,1.6307443102535277,5.525852561585998
0.10566020460103186,1.6304844111895676,5.523121131425607
0.10627095722878349,1.6302286224902403,5.5202514382819174
0.10688170985653511,1.6299766839755798,5.517244034430585
0.10749246248428675,1.629728342886046,5.514099899997323
0.10810321511203837,1.629483354214418,5.510820437745993
0.10871396773979,1.6292414810158724,5.507407466444221
0.10932472036754162,1.6290024946953858,5.503863212845673
0.10993547299529326,1.628766175271685,5.500190302332975
0.11054622562304489,1.6285323116170858,5.496391748268279
0.11115697825079653,1.6283007016726396,5.492470940103757
0.11176773087854816,1.6280711526381375,5.488431630306842
0.11237848350629977,1.627843481136583,5.484277920159739
0.1129892361340514,1.6276175133528685,5.480014244495112
0.11359998876180304,1.627393085146485,5.475645355432936
0.11421074138955467,1.6271700421381776,5.471176305186941
0.11482149401730629,1.6269482397705712,5.466612428010685
0.11543224664505793,1.6267275433428672,5.461959321355915
0.11604299927280955,1.6265078280198124,5.457222826317881
0.11665375190056118,1.6262889788152284,5.452409007443116
0.1172645045283128,1.626070890550467,5.44752413197759
0.11787525715606444,1.625853467788243,5.442574648633057
0.11848600978381607,1.6256366247423837,5.43756716595082
0.1190967624115677,1.625420285164084,5.432508430342256
0.11970751503931934,1.6252043822053588,5.427405303885101
0.12031826766707095,1.6249888582604224,5.422264741955356
0.12092902029482258,1.6247736647858033,5.417093770773179
0.12153977292257422,1.6245587621000614,5.411899464940338
0.12215052555032585,1.6243441191640178,5.4066889250469
0.12276127817807747,1.6241297133424673,5.401469255422068
0.1233720308058291,1.6239155301483819,5.396247542103514
0.12398278343358073,1.6237015629706613,5.391030831097166
0.12459353606133236,1.6234878127865087,5.385826106997949
0.125204288689084,1.6232742878595565,5.380640272038901
0.1258150413168356,1.6230610034248822,5.375480125634865
0.12642579394458725,1.6228479813620786,5.370352344482752
0.12703654657233887,1.6226352498575596,5.365263463278956
0.12764729920009052,1.6224228430573002,5.36021985611059
0.12825805182784214,1.6222108007112073,5.355227718575014
0.12886880445559376,1.6219991678103278,5.350293050677232
0.1294795570833454,1.6217879942181028,5.345421640553481
0.13009030971109703,1.6215773342968665,5.340619049064272
0.13070106233884865,1.6213672465307758,5.335890595296838
0.13131181496660027,1.6211577931463623,5.331241343014254
0.13192256759435192,1.6209490397318556,5.326676088083347
0.13253332022210354,1.6207410548564356,5.322199346910911
0.1331440728498552,1.6205339096905227,5.317815345913542
0.13375482547760678,1.6203276776282094,5.313528012042307
0.13436557810535843,1.6201224339128961,5.3093409643805725
0.13497633073311005,1.6199182552671676,5.305257506828213
0.1355870833608617,1.6197152195279072,5.301280621883094
0.13619783598861332,1.6195134052876174,5.29741296552569
0.13680858861636494,1.6193128915428712,5.293656863209857
0.13741934124411656,1.619113757350775,5.29001430695912
0.13803009387186818,1.6189160814942942,5.286486953563261
0.13864084649961983,1.6187199421572311,5.283076123868351
0.13925159912737145,1.6185254166096152,5.279782803147674
0.1398623517551231,1.6183325809042102,5.2766076425397825
0.14047310438287472,1.6181415095847924,5.273550961535449
0.14108385701062634,1.6179522754068207,5.270612751492082
0.141694609638378,1.6177649490710517,5.267792680152465
0.1423053622661296,1.617579598970615,5.265090097140027
0.14291611489388123,1.617396290952007,5.262504040401481
0.14352686752163288,1.6172150880904181,5.260033243564567
0.1441376201493845,1.6170360504797532,5.257676144175815
0.14474837277713615,1.6168592350376518,5.255430892781617
0.14535912540488774,1.6166846953257727,5.253295362812953
0.14596987803263936,1.6165124813855498,5.251267161232908
0.146580630660391,1.6163426395895852,5.249343639903288
0.14719138328814263,1.6161752125087798,5.2475219076255435
0.14780213591589428,1.616010238795278,5.245798842809633
0.1484128885436459,1.615847753081237,5.244171106722845
0.14902364117139752,1.615687785893388,5.242635157269011
0.14963439379914917,1.6155303635833185,5.241187263248449
0.1502451464269008,1.6153755082733514,5.239823519046855
0.15085589905465244,1.6152232378178615,5.238539859701479
0.15146665168240406,1.61507356577982,5.237332076292124
0.15207740431015568,1.6149265014223286,5.2361958316034425
0.15268815693790733,1.614782049714844,5.235126676006018
0.15329890956565892,1.6146402113537892,5.234120063502148
0.15390966219341054,1.6145009827971772,5.233171367883571
0.1545204148211622,1.6143643563128638,5.2322758989475835
0.1551311674489138,1.614230320039996,5.231428918719244
0.15574192007666546,1.6140988580632076,5.230625657627097
0.15635267270441708,1.613969950499069,5.229861330581157
0.1569634253321687,1.6138435735942833,5.229131152902442
0.15757417795992035,1.613719699835084,5.228430356054314
0.15818493058767197,1.6135982980672783,5.227754203126867
0.15879568321542362,1.6134793336263458,5.227098004027457
0.15940643584317524,1.6133627684769973,5.226457130331255
0.16001718847092686,1.613248561361562,5.225827029746996
0.1606279410986785,1.6131366679565748,5.22520324015629
0.1612386937264301,1.6130270410369119,5.224581403183909
0.16184944635418172,1.6129196306468074,5.223957277261657
0.16246019898193337,1.6128143842770875,5.223326750147309
0.163070951609685,1.6127112470479417,5.222685850864315
0.16368170423743664,1.6126101618965405,5.222030761029247
0.16429245686518826,1.612511069768823,5.221357825536267
0.16490320949293988,1.6124139098147603,5.220663562570568
0.16551396212069153,1.6123186195864059,5.219944672924626
0.16612471474844315,1.612225135238056,5.21919804859418
0.1667354673761948,1.6121333917278302,5.2184207806329646
0.16734622000394642,1.6120433230200053,5.217610166248077
0.16795697263169804,1.6119548622874422,5.216763715119757
0.16856772525944969,1.6118679421134394,5.2158791549335835
0.16917847788720128,1.6117824946923827,5.214954436113784
0.16978923051495293,1.611698452028561,5.213987735750485
0.17039998314270455,1.6116157461325316,5.212977460715979
0.17101073577045617,1.6115343092144436,5.211922249967459
0.17162148839820782,1.6114540738737473,5.210820976036862
0.17223224102595944,1.611374973284725,5.209672745710629
0.17284299365371106,1.611296941377319,5.208476899905259
0.1734537462814627,1.6112199130127396,5.2072330127468485
0.17406449890921433,1.6111438241533689,5.205940889865159
0.17467525153696598,1.6110686120265012,5.204600565916014
0.1752860041647176,1.6109942152814802,5.203212301346935
0.17589675679246922,1.6109205741398358,5.201776578424866
0.17650750942022086,1.6108476305380277,5.20029409654573
0.17711826204797246,1.6107753282624624,5.198765766848502
0.1777290146757241,1.6107036130764503,5.1971927061585435
0.17833976730347573,1.610632432838822,5.195576230286476
0.17895051993122735,1.6105617376139403,5.193917846711536
0.179561272558979,1.6104914797728862,5.192219246679269
0.18017202518673062,1.610421614085618,5.1904822967458975
0.18078277781448224,1.610352097803939,5.188709029802848
0.18139353044223389,1.6102828907351499,5.186901635616069
0.1820042830699855,1.6102139553062749,5.185062450917229
0.18261503569773715,1.6101452566187975,5.183193949083237
0.18322578832548878,1.61007676249387,5.181298729443733
0.1838365409532404,1.6100084435079873,5.17937950625508
0.18444729358099204,1.609940273019148,5.177439097381804
0.18505804620874364,1.6098722271835628,5.175480412725644
0.18566879883649529,1.609804284962988,5.1735064424446815
0.1862795514642469,1.609736428122798,5.171520245002971
0.18689030409199853,1.6096686412209424,5.169524935093845
0.18750105671975018,1.60960091158795,5.167523671478101
0.1881118093475018,1.6095332292981743,5.165519644779638
0.18872256197525342,1.6094655871325074,5.163516065280116
0.18933331460300507,1.6093979805327978,5.161516150754047
0.18994406723075669,1.6093304075482464,5.159523114385527
0.19055481985850833,1.609262868774065,5.157540152807077
0.19116557248625995,1.6091953672827153,5.155570434299893
0.19177632511401158,1.6091279085480477,5.153617087195033
0.19238707774176322,1.6090605003627028,5.151683188512787
0.19299783036951482,1.6089931527491257,5.14977175287741
0.19360858299726647,1.608925877864589,5.147885721742817
0.19421933562501809,1.6088586899006074,5.14602795296328
0.1948300882527697,1.608791604977164,5.1442012107424375
0.19544084088052135,1.6087246410321565,5.142408155991451
0.19605159350827298,1.6086578177065005,5.14065133712663
0.19666234613602462,1.6085911562253281,5.138933181334229
0.19727309876377624,1.608524679275718,5.137255986328984
0.19788385139152787,1.60845841088142,5.135621912630665
0.1984946040192795,1.6083923762750163,5.134032976381338
0.19910535664703113,1.6083266017679834,5.1324910427238315
0.19971610927478275,1.6082611146191073,5.130997819760028
0.20032686190253438,1.608195942901716,5.129554853105611
0.200937614530286,1.608131115370174,5.128163521054937
0.20154836715803764,1.6080666613260977,5.126825030369548
0.20215911978578927,1.6080026104847385,5.125540412698804
0.20276987241354089,1.6079389928419705,5.124310521641574
0.20338062504129253,1.6078758385423177,5.1231360304542575
0.20399137766904415,1.6078131777484457,5.12201743040838
0.2046021302967958,1.6077510405125297,5.120955029799071
0.20521288292454742,1.6076894566499083,5.119948953603445
0.20582363555229904,1.6076284556154048,5.118999143785516
0.2064343881800507,1.6075680663826992,5.118105360242548
0.2070451408078023,1.6075083173271136,5.117267182384739
0.2076558934355539,1.607449236112153,5.116484011339455
0.20826664606330555,1.6073908495801394,5.115755072767551
0.20887739869105718,1.6073331836472449,5.11507942027837
0.20948815131880882,1.607276263203223,5.11445593942824
0.21009890394656044,1.6072201120161151,5.113883352284068
0.21070965657431207,1.6071647526421835,5.11336022253363
0.2113204092020637,1.6071102063413074,5.112884961120773
0.21193116182981533,1.6070564929980666,5.112455832383276
0.21254191445756698,1.60700363104869,5.112070960668847
0.2131526670853186,1.6069516374140556,5.111728337403838
0.21376341971307022,1.6069005274388837,5.11142582858683
0.21437417234082187,1.606850314837253,5.11116118267955
