frequency,refractiveIndex,absorption
0.0006107526277516292,3.164657399462301,0.013105250433089011
0.0012215052555032584,3.1592262755996794,0.05220494290186081
0.0018322578832548875,3.1502889489451844,0.11666241590951695
0.002443010511006517,3.1380103368644927,0.2054536320303421
0.003053763138758146,3.1226083545965233,0.31721842100574354
0.003664515766509775,3.1043427278169338,0.4503243677097811
0.004275268394261404,3.0835027720137584,0.6029372407408978
0.004886021022013034,3.060395209670098,0.7730920667695342
0.005496773649764663,3.0353329075970765,0.9587599030679317
0.006107526277516292,3.008625152061786,1.1579067333085793
0.006718278905267922,2.9805697998608043,1.36854239173589
0.00732903153301955,2.95144739601603,1.5887587595682826
0.00793978416077118,2.9215171598271885,1.8167575280829018
0.008550536788522809,2.891014618192964,2.050868535555253
0.009161289416274438,2.860150602508629,2.289560081655497
0.009772042044026067,2.8291113100020358,2.5314427644225983
0.010382794671777697,2.798059147087363,2.7752683459797534
0.010993547299529326,2.7671341076156204,3.0199250034430514
0.011604299927280955,2.7364554821950784,3.2644301170784824
0.012215052555032585,2.706123738761773,3.507921528660945
0.012825805182784214,2.676222454921326,3.7496479945019465
0.013436557810535843,2.6468202170943296,3.988959373496953
0.014047310438287471,2.617972429522053,4.225296936394171
0.0146580630660391,2.5897229979873835,4.458184058698726
0.015268815693790731,2.562105869415359,4.687217463656352
0.01587956832154236,2.535146420260578,4.912059109706366
0.01649032094929399,2.508862694694942,5.132428764383734
0.017101073577045618,2.483266498920559,5.348097269819293
0.01771182620479725,2.458364361162991,5.558880480156578
0.018322578832548876,2.4341583686279753,5.764633835380704
0.018933331460300507,2.410646893381434,5.96524752682856
0.019544084088052135,2.3878252190812934,6.160642205133229
0.020154836715803762,2.365686080003825,6.3507651801074685
0.020765589343555393,2.3442201230500013,6.535587063012688
0.02137634197130702,2.323416302517244,6.715098803998446
0.021987094599058652,2.3032622164675516,6.889309080664513
0.02259784722681028,2.2837443925720047,7.058241997290214
0.02320859985456191,2.2648485304010135,7.22193505801887
0.023819352482313542,2.246559706280706,7.380437380993391
0.02443010511006517,2.2288625460595344,7.533808123996171
0.025040857737816797,2.211741370429435,7.682115095480266
0.025651610365568428,2.1951803168218103,7.8254335279517475
0.026262362993320056,2.1791634413470504,7.963844993462247
0.026873115621071687,2.1636748037618263,8.097436443492107
0.027483868248823314,2.148698538025178,8.22629935776037
0.028094620876574942,2.134218910636418,8.35052898850186
0.028705373504326573,2.1202203686288583,8.470223688522982
0.0293161261320782,2.1066875788177963,8.585484312903935
0.029926878759829835,2.0936054596635927,8.696413685578735
0.030537631387581463,2.080959206906451,8.803116123213002
0.03114838401533309,2.068734313954162,8.905697009830265
0.03175913664308472,2.0569165878539013,9.004262416532116
0.03236988927083635,2.0454921615507655,9.098918761424802
0.03298064189858798,2.0344475030261493,9.189772505526692
0.03359139452633961,2.0237694218157163,9.276929880995135
0.034202147154091235,2.013445073327368,9.360496648491559
0.03481289978184286,2.0034619613123126,9.440577880912556
0.0354236524095945,1.9938079387853591,9.517277771058895
0.036034405037346125,1.9844712076424997,9.590699461104139
0.03664515766509775,1.9754403171833705,9.660944891969873
0.03725591029284938,1.9667041617121694,9.728114670916524
0.037866662920601014,1.958251977362236,9.792307955831472
0.038477415548352635,1.9500733382657272,9.853622354837208
0.03908816817610427,1.9421581521701825,9.912153839963175
0.039698920803855904,1.9344966555873548,9.967996673724565
0.040309673431607525,1.9270794085463125,10.021243347537599
0.04092042605935916,1.9198972890116102,10.071984530972763
0.04153117868711079,1.9129414870183434,10.120309030912265
0.04214193131486242,1.9062034985683791,10.166303759732674
0.04275268394261404,1.8996751193259989,10.210053711685156
0.04336343657036568,1.89334843814626,10.25164194669167
0.043974189198117304,1.8872158304653008,10.291149580818022
0.04458494182586893,1.881269951578517,10.328655782727587
0.04519569445362056,1.8755037298298147,10.364237775457411
0.045806447081372194,1.869910359732926,10.39797084289846
0.04641719970912382,1.864483295043825,10.429928340399584
0.04702795233687545,1.8592162418017557,10.460181708952266
0.047638704964627084,1.854103151354986,10.48880049245128
0.048249457592378704,1.8491382133861898,10.51585235756246
0.04886021022013034,1.8443158489513167,10.541403115766084
0.049470962847881966,1.8396307035448052,10.565516747179881
0.050081715475633594,1.8350776402031215,10.588255425801526
0.05069246810338522,1.8306517326577352,10.609679545843804
0.051303220731136856,1.8263482585478736,10.629847748870969
0.05191397335888848,1.8221626927025776,10.648816951474798
0.05252472598664011,1.8180907005009006,10.666642373262263
0.053135478614391746,1.8141281313183222,10.683377564954284
0.05374623124214337,1.8102710120667822,10.699074436424622
0.054356983869895,1.8065155408350615,10.713783284533832
0.05496773649764663,1.8028580806355827,10.727552820637978
0.05557848912539826,1.7992951532630639,10.740430197674963
0.056189241753149884,1.795823433269906,10.752461036753413
0.05679999438090152,1.7924397420625318,10.763689453186979
0.057410747008653146,1.7891410421224168,10.774158081936823
0.05802149963640477,1.7859244313549956,10.783908102439883
0.0586322522641564,1.7827871375691358,10.792979262814919
0.059243004891908035,1.779726513089388,10.801409903452152
0.05985375751965967,1.7767400295028168,10.809236980002588
0.06046451014741129,1.7738252725417625,10.816496085793307
0.061075262775162925,1.770979937103545,10.82322147370361
0.06168601540291455,1.7682018224077118,10.829446077542766
0.06229676803066618,1.765488827291171,10.835201532977637
0.0629075206584178,1.7628389456411788,10.840518198061018
0.06351827328616944,1.7602502619659293,10.845425173416478
0.06412902591392107,1.7577209471022117,10.849950322137364
0.0647397785416727,1.755249254059367,10.854120289458653
0.06535053116942433,1.7528335139985982,10.85796052226218
0.06596128379717596,1.750472132346454,10.861495288474403
0.0665720364249276,1.748163585041177,10.864747696416185
0.06718278905267921,1.7459064149104382,10.867739714161758
0.06779354168043085,1.7436992281788277,10.870492188963036
0.06840429430818247,1.7415406911033886,10.873024866792303
0.06901504693593409,1.7394295267353328,10.87535641205383
0.06962579956368573,1.7373645118060173,10.877504427512413
0.07023655219143736,1.7353444737351493,10.879485474481564
0.070847304819189,1.7333682877591416,10.881315093313292
0.07145805744694061,1.7314348741774481,10.883007824224569
0.07206881007469225,1.7295431957146863,10.884577228493786
0.07267956270244387,1.7276922549962876,10.886035910055122
0.0732903153301955,1.7258810921353742,10.887395537515147
0.07390106795794714,1.724108782428554,10.888666866611205
0.07451182058569876,1.7223744341582623,10.889859763127793
0.0751225732134504,1.720677186499286,10.890983226281781
0.07573332584120203,1.7190162075270838,10.8920454125837
0.07634407846895366,1.7173906923254754,10.893053660178497
0.07695483109670527,1.7157998611913088,10.894014513664237
0.0775655837244569,1.7142429579336762,10.894933749383904
0.07817633635220854,1.7127192482652385,10.895816401181524
0.07878708897996017,1.711228018283256,10.896666786609819
0.07939784160771181,1.7097685730378844,10.897488533572954
0.08000859423546343,1.7083402351853088,10.898284607385147
0.08061934686321505,1.7069423437233175,10.899057338221551
0.08123009949096668,1.7055742528068778,10.89980844893542
0.08184085211871832,1.70423533064133,10.900539083212728
0.08245160474646994,1.7029249584507875,10.901249834031436
0.08306235737422157,1.7016425295193656,10.901940772391534
0.08367311000197321,1.70038744830286,10.902611476278278
0.08428386262972484,1.6991591296085022,10.903261059819478
0.08489461525747646,1.6979569978404494,10.903888202595114
0.08550536788522808,1.6967804863086595,10.904491179056354
0.08611612051297972,1.6956290365988302,10.9050678880083
0.08672687314073135,1.694502098001078,10.905615882110245
0.08733762576848299,1.6933991269950681,10.906132397345445
0.08794837839623461,1.6923195867893093,10.906614382411357
0.08855913102398623,1.6912629469123335,10.90705852797999
0.08916988365173786,1.6902286828535331,10.907461295778358
0.0897806362794895,1.6892162757513853,10.90781894743684
0.09039138890724112,1.688225212126881,10.908127573054648
0.09100214153499275,1.6872549836599327,10.908383119429539
0.09161289416274439,1.6863050870065965,10.908581417901338
0.09222364679049602,1.6853750236549412,10.908718211756174
0.09283439941824764,1.6844642998174242,10.908789183141497
0.09344515204599926,1.6835724263576617,10.908789979440394
0.0940559046737509,1.6826989187494934,10.90871623905593
0.09466665730150253,1.6818432970662718,10.908563616556078
0.09527740992925417,1.6810050859983356,10.908327807132387
0.09588816255700579,1.6801838148966342,10.90800457032462
0.09649891518475741,1.6793790178405283,10.907589752967729
0.09710966781250904,1.6785902337277945,10.907079311316709
0.09772042044026068,1.677817006384898,10.90646933230874
0.09833117306801231,1.677058884695644,10.90575605392187
0.09894192569576393,1.6763154227463324,10.904935884594257
0.09955267832351557,1.6755861799855896,10.90400542166692
0.10016343095126719,1.6748707213970795,10.902961468818717
0.10077418357901882,1.6741686176833406,10.901801052462055
0.10138493620677044,1.6734794454590334,10.900521437072147
0.10199568883452208,1.6728027874519302,10.899120139424426
0.10260644146227371,1.6721382327100063,10.897594941718086
0.10321719409002535,1.6714853768130673,10.895943903566522
0.10382794671777695,1.6708438220873636,10.894165372837762
0.10443869934552859,1.6702131778217122,10.892257995332804
0.10504945197328022,1.669593060483699,10.89022072329023
0.10566020460103186,1.6689830939345665,10.888052822711519
0.10627095722878349,1.6683829096414722,10.885753879502444
0.10688170985653511,1.6677921468858496,10.883323804430347
0.10749246248428675,1.6672104529666494,10.880762836899986
0.10810321511203837,1.6666374833973219,10.87807154755389
0.10871396773979,1.6660729020954415,10.87525083970639
0.10932472036754162,1.6655163815639444,10.87230194962365
0.10993547299529326,1.6649676030630225,10.869226445665426
0.11054622562304489,1.664426256771757,10.866026226306866
0.11115697825079653,1.6638920419386714,10.862703517062315
0.11176773087854816,1.6633646670204207,10.859260866335768
0.11237848350629977,1.6628438498079194,10.855701140225234
0.1129892361340514,1.6623293175392673,10.852027516311576
0.11359998876180304,1.6618208069989044,10.848243476464946
0.11421074138955467,1.6613180646024908,10.844352798703785
0.11482149401730629,1.6608208464670742,10.840359548145104
0.11543224664505793,1.660328918466174,10.836268067085824
0.11604299927280955,1.659842056269481,10.832082964257598
0.11665375190056118,1.6593600453669288,10.827809103300005
0.1172645045283128,1.6588826810769686,10.823451590497537
0.11787525715606444,1.6584097685389287,10.819015761828966
0.11848600978381607,1.6579411226894203,10.814507169378354
0.1190967624115677,1.6574765682227908,10.809931567157987
0.11970751503931934,1.6570159395357051,10.805294896395568
0.12031826766707095,1.6565590806559776,10.800603270338094
0.12092902029482258,1.6561058451558441,10.79586295862646
0.12153977292257422,1.655656096049908,10.791080371294107
0.12215052555032585,1.655209705678051,10.786262042445006
0.12276127817807747,1.6547665555736555,10.781414613665358
0.1233720308058291,1.6543265363175041,10.776544817223849
0.12398278343358073,1.6538895473778148,10.771659459114955
0.12459353606133236,1.653455496936856,10.766765401999596
0.125204288689084,1.653024301704666,10.761869548097078
0.1258150413168356,1.6525958867204238,10.756978822081074
0.12642579394458725,1.6521701851420458,10.7521001540322
0.12703654657233887,1.6517471380246183,10.747240462498066
0.12764729920009052,1.6513266940883098,10.742406637711142
0.12825805182784214,1.6509088094764197,10.737605525013219
0.12886880445559376,1.6504934475042452,10.732843908533512
0.1294795570833454,1.6500805783994799,10.728128495166523
0.13009030971109703,1.6496701790348498,10.723465898893497
0.13070106233884865,1.649262232653722,10.718862625489747
0.13131181496660027,1.6488567285894373,10.714325057658742
0.13192256759435192,1.648453661979096,10.709859440630371
0.13253332022210354,1.6480530334725672,10.705471868260643
0.1331440728498552,1.6476548489374685,10.701168269666505
0.13375482547760678,1.647259119160874,10.69695439642761
0.13436557810535843,1.6468658595484942,10.69283581038515
0.13497633073311005,1.6464750898220801,10.68881787206462
0.1355870833608617,1.6460868337157868,10.684905729747577
0.13619783598861332,1.6457011186722221,10.681104309215407
0.13680858861636494,1.6453179755388947,10.677418304184314
0.13741934124411656,1.6449374382657609,10.673852167450601
0.13803009387186818,1.6445595436045581,10.67041010276013
0.13864084649961983,1.6441843308105841,10.667096057416092
0.13925159912737145,1.6438118413475715,10.663913715634864
0.1398623517551231,1.6434421185962873,10.660866492658029
0.14047310438287472,1.6430752075674475,10.65795752962716
0.14108385701062634,1.6427111546195377,10.655189689223535
0.141694609638378,1.6423500071820873,10.652565552075242
0.1423053622661296,1.6419918134849245,10.65008741392951
0.14291611489388123,1.641636622293915,10.647757283587833
0.14352686752163288,1.641284482653658,10.645576881598227
0.1441376201493845,1.6409354436375805,10.643547639697017
0.14474837277713615,1.6405895541058513,10.641670700991158
0.14535912540488774,1.6402468624714974,10.639946920869566
0.14596987803263936,1.6399074164750835,10.63837686863017
0.146580630660391,1.6395712629682775,10.636960829808503
0.14719138328814263,1.639238447706604,10.635698809189856
0.14780213591589428,1.6389090151516525,10.634590534488481
0.1484128885436459,1.6385830082829784,10.633635460673023
0.14902364117139752,1.6382604684199014,10.632832774917452
0.14963439379914917,1.637941435053386,10.632181402155007
0.1502451464269008,1.6376259456881497,10.631680011211682
0.15085589905465244,1.6373140356951217,10.631327021494148
0.15146665168240406,1.637005738174342,10.631120610206272
0.15207740431015568,1.6367010838283722,10.631058720067815
0.15268815693790733,1.6364001008462465,10.631139067506753
0.15329890956565892,1.6361028147979817,10.6313591512976
0.15390966219341054,1.6358092485396276,10.631716261616052
0.1545204148211622,1.6355194221288194,10.632207489479976
0.1551311674489138,1.635233352750765,10.632829736547208
0.15574192007666546,1.6349510546545858,10.633579725238302
0.15635267270441708,1.634672539099889,10.634454009154139
0.1569634253321687,1.6343978143134508,10.63544898375667
0.15757417795992035,1.6341268854558466,10.636560897280962
0.15818493058767197,1.6338597545978644,10.637785861847615
0.15879568321542362,1.6335964207064932,10.639119864743456
0.15940643584317524,1.6333368796402938,10.640558779839063
0.16001718847092686,1.6330811241539038,10.642098379111992
0.1606279410986785,1.6328291439114473,10.643734344244255
0.1612386937264301,1.6325809255085775,10.645462278263254
0.16184944635418172,1.6323364525028832,10.647277717195989
0.16246019898193337,1.632095705452368,10.649176141705997
0.163070951609685,1.631858661961697,10.651152988683675
0.16368170423743664,1.631625296735909,10.65320366276141
0.16429245686518826,1.6313955816412573,10.65532354772443
0.16490320949293988,1.6311694857728547,10.65750801779027
0.16551396212069153,1.630946975528778,10.659752448729785
0.16612471474844315,1.6307280146902838,10.662052228803438
0.1667354673761948,1.630512564507776,10.664402769487944
0.16734622000394642,1.630300583792169,10.666799515968565
0.16795697263169804,1.6300920290112701,10.669237957373747
0.16856772525944969,1.6298868543908238,10.67171363672996
0.16917847788720128,1.6296850120198294,10.674222160614871
0.16978923051495293,1.629486451959766,10.676759208488983
0.17039998314270455,1.6292911223573456,10.679320541686511
0.17101073577045617,1.629098969560412,10.681902012046852
0.17162148839820782,1.6289099382366146,10.684499570170853
0.17223224102595944,1.6287239714944786,10.687109273285218
0.17284299365371106,1.6285410110064944,10.689727292701154
0.1734537462814627,1.628360997133865,10.69234992085398
0.17406449890921433,1.6281838690525314,10.694973577911608
0.17467525153696598,1.628009564880126,10.697594817941624
0.1752860041647176,1.6278380218034891,10.700210334627242
0.17589675679246922,1.627669176206401,10.702816966524416
0.17650750942022086,1.6275029637971825,10.705411701853192
0.17711826204797246,1.6273393197358301,10.707991682818198
0.1777290146757241,1.6271781787603556,10.710554209453868
0.17833976730347573,1.6270194753120104,10.713096742991896
0.17895051993122735,1.6268631436590826,10.715616908749462
0.179561272558979,1.6267091180189672,10.718112498537955
0.18017202518673062,1.6265573326782203,10.720581472593514
0.18078277781448224,1.6264077221103153,10.72302196103192
0.18139353044223389,1.6262602210908366,10.725432264830943
0.1820042830699855,1.6261147648098533,10.727810856345956
0.18261503569773715,1.6259712889812301,10.730156379364146
0.18322578832548878,1.6258297299486444,10.73246764870523
0.1838365409532404,1.625690024788096,10.734743649376481
0.18444729358099204,1.6255521114067024,10.73698353529249
0.18505804620874364,1.6254159286375895,10.739186627569287
0.18566879883649529,1.6252814163307074,10.741352412405481
0.1862795514642469,1.6251485154394083,10.743480538562475
0.18689030409199853,1.625017168102635,10.74557081445723
0.18750105671975018,1.6248873177225975,10.747623204882991
0.1881118093475018,1.624758909037814,10.7496378273723
0.18872256197525342,1.6246318881914188,10.751614948218824
0.18933331460300507,1.6245062027946506,10.753554978175398
0.18994406723075669,1.6243818019854426,10.755458467844859
0.19055481985850833,1.6242586364820701,10.757326102782994
0.19116557248625995,1.6241366586318038,10.759158698331175
0.19177632511401158,1.6240158224545433,10.760957194199321
0.19238707774176322,1.6238960836814256,10.762722648817352
0.19299783036951482,1.623777399788398,10.764456233476691
0.19360858299726647,1.6236597300247868,10.76615922628096
0.19421933562501809,1.623543035436878,10.76783300592769
0.1948300882527697,1.623427278886563,10.769479045340615
0.19544084088052135,1.6233124250651008,10.771098905174554
0.19605159350827298,1.6231984405020694,10.77269422721321
0.19666234613602462,1.6230852935695879,10.774266727681104
0.19727309876377624,1.6229729544819027,10.77581819049044
0.19788385139152787,1.6228613952904436,10.777350460443813
0.1984946040192795,1.622750589874468,10.778865436412808
0.19910535664703113,1.622640513927416,10.78036506451343
0.19971610927478275,1.6225311449391193,10.781851331297558
0.20032686190253438,1.6224224621740049,10.783326256980628
0.200937614530286,1.6223144466454502,10.784791888723959
0.20154836715803764,1.6222070810864548,10.786250293990959
0.20215911978578927,1.6221003499167923,10.787703553994541
0.20276987241354089,1.6219942392068312,10.789153757253839
0.20338062504129253,1.6218887366381929,10.790602993276384
0.20399137766904415,1.6217838314614479,10.792053346382229
0.2046021302967958,1.6216795144510359,10.79350688968518
0.20521288292454742,1.621575777857611,10.794965679245491
0.20582363555229904,1.6214726153580097,10.796431748407949
0.2064343881800507,1.621370022003045,10.79790710233849
0.2070451408078023,1.6212679941633346,10.799393712770478
0.2076558934355539,1.621166529473364,10.800893512972921
0.20826664606330555,1.6210656267739967,10.80240839294963
0.20887739869105718,1.6209652860536332,10.80394019487929
0.20948815131880882,1.6208655083882262,10.805490708804653
0.21009890394656044,1.6207662958803575,10.807061668577655
0.21070965657431207,1.6206676515975809,10.8086547480675
0.2113204092020637,1.6205695795102169,10.810271557636327
0.21193116182981533,1.6204720844288183,10.81191364088736
