frequency,refractiveIndex,absorption
0.0006107526277516292,2.3256942775993212,0.001852999705810664
0.0012215052555032584,2.325589723853057,0.007409492048664236
0.0018322578832548875,2.325415539877233,0.016661963444668953
0.002443010511006517,2.3251718336954132,0.0295979136902374
0.003053763138758146,2.324858755787396,0.04619988951182634
0.003664515766509775,2.3244764983441404,0.06644553132728674
0.004275268394261404,2.3240252943213786,0.09030763301264774
0.004886021022013034,2.3235054163003177,0.11775421441229678
0.005496773649764663,2.322917175165624,0.14874860627681027
0.006107526277516292,2.322260918612428,0.18324954726154719
0.006718278905267922,2.321537029495481,0.22121129257110902
0.00732903153301955,2.320745924034985,0.2625837337898765
0.00793978416077118,2.319888049894699,0.3073125293977083
0.008550536788522809,2.318963884148914,0.35533924543252154
0.009161289416274438,2.317973931155828,0.40660150572811377
0.009772042044026067,2.316918720355191,0.46103315112638527
0.010382794671777697,2.3157988040089044,0.5185644070381044
0.010993547299529326,2.314614754903241,0.5791220587056308
0.011604299927280955,2.3133671640316313,0.6426296335042674
0.012215052555032585,2.3120566382767183,0.7090075896066363
0.012825805182784214,2.310683798110287,0.7781735103257547
0.013436557810535843,2.309249275329106,0.8500423034479311
0.014047310438287471,2.307753710844255,0.9245264048655205
0.0146580630660391,2.306197752540712,1.0015359858218076
0.015268815693790731,2.304582053223182,1.080979163085875
0.01587956832154236,2.302907268663118,1.1627622113836573
0.01649032094929399,2.3011740557608813,1.2467897774223562
0.017101073577045618,2.2993830708356935,1.3329650948584895
0.01771182620479725,2.297534968054948,1.4211901995756477
0.018322578832548876,2.2956303980129453,1.5113661446545619
0.018933331460300507,2.2936700064679094,1.6033932144371599
0.019544084088052135,2.291654433244616,1.6971711371057332
0.020154836715803762,2.289584311308582,1.792599295219508
0.020765589343555393,2.2874602660164003,1.8895769336721944
0.02137634197130702,2.2852829145451397,1.9880033645564161
0.021987094599058652,2.2830528655026145,2.0877781684434202
0.02259784722681028,2.2807707187186135,2.188801391609096
0.02320859985456191,2.2784370652160812,2.290973738760579
0.023819352482313542,2.2760524873596855,2.3941967608398267
0.02443010511006517,2.273617559178122,2.4983730375042126
0.025040857737816797,2.2711328468551537,2.603406353905985
0.025651610365568428,2.268598909383331,2.7092018714149293
0.026262362993320056,2.2660162993731703,2.815666291951158
0.026873115621071687,2.2633855640096923,2.922708015616373
0.027483868248823314,2.260707246147126,3.0302372913331874
0.028094620876574942,2.257981885531955,3.138166360224817
0.028705373504326573,2.2552100201435543,3.246409591486912
0.0293161261320782,2.25239218764111,3.35488361052591
0.029926878759829835,2.249528926904922,3.4635074191582023
0.030537631387581463,2.246620779659692,3.5722025076859283
0.03114838401533309,2.243668292167028,3.680892958685333
0.03175913664308472,2.2406720169741274,3.7895055423658826
0.03236988927083635,2.237632514705329,3.897969803377335
0.03298064189858798,2.23455035588316,4.006218138964941
0.03359139452633961,2.231426122765468,4.1141858683931
0.034202147154091235,2.228260411185268,4.221811293579316
0.03481289978184286,2.225053832380078,4.329035750902043
0.0354236524095945,2.2218070147977005,4.435803654167706
0.036034405037346125,2.218520605865799,4.542062528744079
0.03664515766509775,2.215195273712797,4.6477630368888025
0.03725591029284938,2.2118317088282815,4.752858994325049
0.037866662920601014,2.208430625651386,4.8573073781373886
0.038477415548352635,2.20499276407632,4.9610683260841055
0.03908816817610427,2.2015188908647274,5.06410512744368
0.039698920803855904,2.198009800955258,5.166384205536216
0.040309673431607525,2.1944663186614526,5.267875092081754
0.04092042605935916,2.190889298749699,5.368550393579363
0.04153117868711079,2.1872796273898927,5.468385749912595
0.04214193131486242,2.1836382229721547,5.567359785407086
0.04275268394261404,2.1799660367838176,5.665454052586879
0.04336343657036568,2.1762640535417295,5.762652968896244
0.043974189198117304,2.172533291775754,5.858943746670709
0.04458494182586893,2.1687748040602197,5.954316316661851
0.04519569445362056,2.1649896770909343,6.048763245435108
0.045806447081372194,2.161179031606205,6.142279646977156
0.04641719970912382,2.157344022151171,6.234863088863825
0.04702795233687545,2.1534858366855687,6.326513493353361
0.047638704964627084,2.149605696035871,6.417233033782217
0.048249457592378704,2.1457048531935325,6.507026026651269
0.04886021022013034,2.1417845924617644,6.595898819799667
0.049470962847881966,2.1378462284541264,6.683859677072923
0.050081715475633594,2.133891104948761,6.770918659896497
0.05069246810338522,2.129920593602837,6.8570875061721335
0.051303220731136856,2.125936092532398,6.94237950691806
0.05191397335888848,2.1219390247632983,7.026809381074511
0.05252472598664011,2.117930836559505,7.110393148897792
0.053135478614391746,2.113912995635533,7.193148004364359
0.05374623124214337,2.1098869892601293,7.275092187002443
0.054356983869895,2.1058543222588035,7.3562448535665315
0.05496773649764663,2.1018165149230796,7.436625949962313
0.05557848912539826,2.097775100834631,7.516256083823311
0.056189241753149884,2.093731624612758,7.5951563981326755
0.05679999438090152,2.089687639593751,7.6733484462716115
0.057410747008653146,2.0856447054509504,7.750854068867746
0.05802149963640477,2.0816043857643165,7.82769527280252
0.0586322522641564,2.0775682455484157,7.903894112724158
0.059243004891908035,2.073537848747761,7.979472575399152
0.05985375751965967,2.0695147557083726,8.05445246721938
0.06046451014741129,2.065500520634389,8.128855305167471
0.061075262775162925,2.061496689038458,8.202702211524668
0.06168601540291455,2.0575047951944545,8.276013812590485
0.06229676803066618,2.0535263596010056,8.348810141664607
0.0629075206584178,2.049562886463961,8.421110546523886
0.06351827328616944,2.045615861205868,8.492933601608808
0.06412902591392107,2.0416867480101697,8.564297025115675
0.0647397785416727,2.0377769874076006,8.63521760117139
0.06535053116942433,2.033887993911976,8.7057111072488
0.06596128379717596,2.0300211537122808,8.775792246963244
0.0665720364249276,2.0261778224275675,8.845474588368463
0.06718278905267921,2.0223593229309698,8.914770507855664
0.06779354168043085,2.018566943248661,8.98369113973722
0.06840429430818247,2.0148019345393307,9.052246331579658
0.06901504693593409,2.01106550915936,9.120444605332194
0.06962579956368573,2.0073588388185146,9.188293124278436
0.07023655219143736,2.003683052830606,9.255797665821715
0.070847304819189,2.0000392364632487,9.322962600097027
0.07145805744694061,1.996428429390387,9.389790874385262
0.07206881007469225,1.9928516242509902,9.45628400328911
0.07267956270244387,1.9893097653169225,9.522442064613978
0.0732903153301955,1.985803747272576,9.588263700881008
0.07390106795794714,1.9823344141085961,9.653746126384588
0.07451182058569876,1.978902558131609,9.718885139691656
0.0751225732134504,1.9755089190915214,9.783675141466322
0.07573332584120203,1.9721541834276433,9.84810915748815
0.07634407846895366,1.9688389836345344,9.912178866722078
0.07695483109670527,1.965563897748143,9.975874634281636
0.0775655837244569,1.9623294489525007,10.039185549118425
0.07817633635220854,1.9591361053068728,10.102099466256519
0.07878708897996017,1.9559842795930502,10.164603053381866
0.07939784160771181,1.9528743292820436,10.226681841584242
0.08000859423546343,1.9498065566192706,10.288320280041955
0.08061934686321505,1.9467812088269358,10.349501794427027
0.08123009949096668,1.9437984784221116,10.41020884880418
0.08184085211871832,1.940858503648693,10.47042301078546
0.08245160474646994,1.9379613690211823,10.530125019697168
0.08306235737422157,1.935107105977989,10.589294857508921
0.08367311000197321,1.9322956936416782,10.647911822267858
0.08428386262972484,1.9295270596833853,10.705954603777247
0.08489461525747646,1.926801081288373,10.763401361252999
0.08550536788522808,1.924117586219495,10.820229802689024
0.08611612051297972,1.9214763539751092,10.876417265657429
0.08672687314073135,1.9188771170378236,10.931940799270327
0.08733762576848299,1.916319562210203,10.98677724702502
0.08794837839623461,1.9138033320334582,11.040903330255885
0.08855913102398623,1.9113280262849075,11.094295731915826
0.08916988365173786,1.9088932035498791,11.146931180409474
0.0897806362794895,1.9064983828635762,11.198786533203894
0.09039138890724112,1.904143045418258,11.249838859943806
0.09100214153499275,1.901826636330986,11.300065524800148
0.09161289416274439,1.8995485664670932,11.349444267787755
0.09222364679049602,1.897308214314364,11.39795328478829
0.09283439941824764,1.8951049279029162,11.445571306024792
0.09344515204599926,1.8929380267656022,11.492277672735348
0.0940559046737509,1.8908068039337627,11.538052411803985
0.09466665730150253,1.888710527963048,11.582876308112283
0.09527740992925417,1.8866484449840524,11.626730974385321
0.09588816255700579,1.8846197807724059,11.66959891831184
0.09649891518475741,1.88262374283303,11.711463606731769
0.09710966781250904,1.8806595224931877,11.752309526690311
0.09772042044026068,1.8787262969990777,11.792122243174072
0.09833117306801231,1.8768232316106217,11.830888453349347
0.09894192569576393,1.8749494816892687,11.86859603714251
0.09955267832351557,1.8731041947735994,11.905234104008095
0.10016343095126719,1.8712865126376417,11.940793035748309
0.10077418357901882,1.8694955733268694,11.975264525258133
0.10138493620677044,1.8677305131669764,12.008641611086423
0.10199568883452208,1.865990468740578,12.040918707714562
0.10260644146227371,1.8642745788272257,12.072091631473839
0.10321719409002535,1.862581986302129,12.10215762203202
0.10382794671777695,1.8609118399892248,12.131115359398196
0.10443869934552859,1.8592632964643747,12.158964976410054
0.10504945197328022,1.8576355218046279,12.185708066681572
0.10566020460103186,1.8560276932796838,12.211347688004432
0.10627095722878349,1.8544390009819303,12.235888361215096
0.10688170985653511,1.852868649391546,12.259336064549775
0.10749246248428675,1.8513158588734877,12.281698223528455
0.10810321511203837,1.8497798671033228,12.302983696423091
0.10871396773979,1.8482599304191412,12.323202755378553
0.10932472036754162,1.8467553250970261,12.342367063271517
0.10993547299529326,1.8452653485477906,12.360489646404426
0.11054622562304489,1.8437893204329734,12.37758486314653
0.11115697825079653,1.8423265836982885,12.393668368646729
0.11176773087854816,1.8408765055230707,12.408757075755789
0.11237848350629977,1.839438478184442,12.422869112307065
0.1129892361340514,1.838011919835246,12.436023774917198
0.11359998876180304,1.8365962751950267,12.448241479476952
0.11421074138955467,1.8351910161536378,12.459543708516456
0.11482149401730629,1.833795642287281,12.469952955632515
0.11543224664505793,1.8324096812870927,12.47949266718044
0.11604299927280955,1.8310326893006135,12.488187181436063
0.11665375190056118,1.8296642511867494,12.49606166544249
0.1172645045283128,1.8283039806850896,12.503142049761124
0.11787525715606444,1.8269515205006777,12.509454961353825
0.11848600978381607,1.8256065423055816,12.515027654823971
0.1190967624115677,1.82426874665883,12.519887942251477
0.11970751503931934,1.8229378628464978,12.52406412185506
0.12031826766707095,1.821613648643968,12.527584905721131
0.12092902029482258,1.8202958900025534,12.53047934683615
0.12153977292257422,1.8189844006628644,12.532776765660277
0.12215052555032585,1.8176790216975458,12.534506676479333
0.12276127817807747,1.8163796209860694,12.53569871377063
0.1233720308058291,1.8150860926245118,12.536382558813356
0.12398278343358073,1.8137983562733746,12.5365878667753
0.12459353606133236,1.8125163564465767,12.536344194497106
0.125204288689084,1.8112400617449518,12.535680929196348
0.1258150413168356,1.8099694640376223,12.534627218304623
0.12642579394458725,1.8087045775947512,12.533211900645115
0.12703654657233887,1.8074454381752103,12.531463439151826
0.12764729920009052,1.806192102072816,12.529409855322747
0.12825805182784214,1.8049446451248061,12.527078665593871
0.12886880445559376,1.8037031616862527,12.52449681980804
0.1294795570833454,1.802467763574178,12.521690641948119
0.13009030971109703,1.8012385789851075,12.518685773291224
0.13070106233884865,1.8000157513898076,12.515507118131909
0.13131181496660027,1.7987994384089678,12.512178792213307
0.13192256759435192,1.797589810673511,12.508724073992035
0.13253332022210354,1.796387050673243,12.505165358854521
0.1331440728498552,1.7951913515974423,12.50152411639024
0.13375482547760678,1.7940029161709876,12.497820850815657
0.13436557810535843,1.7928219554895337,12.494075064634497
0.13497633073311005,1.7916486878571478,12.490305225603931
0.1355870833608617,1.7904833376297848,12.486528737069426
0.13619783598861332,1.7893261340678455,12.482761911717878
0.13680858861636494,1.788177310200967,12.479019948786048
0.13741934124411656,1.7870371017081261,12.475316914754483
0.13803009387186818,1.7859057458159604,12.471665727540014
0.13864084649961983,1.784783480218155,12.468078144195534
0.13925159912737145,1.7836705420185697,12.464564752109032
0.1398623517551231,1.7825671667006926,12.46113496368858
0.14047310438287472,1.7814735871258383,12.45779701450629
0.14108385701062634,1.7803900325623918,12.454557964864993
0.141694609638378,1.779316727748267,12.451423704743453
0.1423053622661296,1.7782538919885802,12.448398962063322
0.14291611489388123,1.7772017382904144,12.44548731421542
0.14352686752163288,1.77616047253641,12.442691202771513
0.1441376201493845,1.7751302926987407,12.44001195130065
0.14474837277713615,1.7741113880949186,12.437449786200153
0.14535912540488774,1.773103938686714,12.435003860445704
0.14596987803263936,1.772108114423305,12.432672280154643
0.146580630660391,1.7711240746296697,12.43045213385295
0.14719138328814263,1.7701519674410315,12.428339524326832
0.14780213591589428,1.7691919292840803,12.42632960293636
0.1484128885436459,1.768244084405502,12.424416606262293
0.14902364117139752,1.767308544448229,12.422593894950271
0.14963439379914917,1.7663854080756856,12.420853994615122
0.1502451464269008,1.7654747606441454,12.419188638660165
0.15085589905465244,1.764576673923218,12.417588812865985
0.15146665168240406,1.763691205864307,12.41604480159695
0.15207740431015568,1.7628184004167877,12.414546235472237
0.15268815693790733,1.7619582873915036,12.413082140345532
0.15329890956565892,1.7611108823710844,12.411640987434991
0.15390966219341054,1.7602761866664323,12.410210744444917
0.1545204148211622,1.7594541873186496,12.408778927516178
0.1551311674489138,1.7586448571455424,12.407332653846668
0.15574192007666546,1.7578481548317346,12.40585869481753
0.15635267270441708,1.7570640250613414,12.404343529466013
0.1569634253321687,1.7562923986920207,12.4027733981418
0.15757417795992035,1.7555331929691664,12.401134356188873
0.15818493058767197,1.7547863117788942,12.399412327493538
0.15879568321542362,1.7540516459383875,12.397593157742548
0.15940643584317524,1.753329073522114,12.395662667237394
0.16001718847092686,1.7526184602223247,12.393606703112617
0.1606279410986785,1.7519196597422018,12.39141119081179
0.1612386937264301,1.7512325142199383,12.389062184673735
0.16184944635418172,1.7505568546819936,12.38654591749037
0.16246019898193337,1.749892501523704,12.383848848898834
0.163070951609685,1.7492392650153952,12.380957712475324
0.16368170423743664,1.7485969458320814,12.377859561404547
0.16429245686518826,1.7479653356048233,12.374541812602317
0.16490320949293988,1.7473442174917684,12.370992289174797
0.16551396212069153,1.7467333667668958,12.367199261105341
0.16612471474844315,1.746132551424429,12.363151484062184
0.1667354673761948,1.7455415327969233,12.358838236231845
0.16734622000394642,1.744960066184972,12.354249353085542
0.16795697263169804,1.744387901496506,12.349375259993193
0.16856772525944969,1.7438247838936587,12.344207002610483
0.16917847788720128,1.7432704544451725,12.338736274965898
0.16978923051495293,1.7427246507823324,12.332955445187038
0.17039998314270455,1.7421871077564464,12.326857578809747
0.17101073577045617,1.74165755809591,12.320436459623778
0.17162148839820782,1.7411357330609092,12.313686608013994
0.17223224102595944,1.7406213630938736,12.306603296765784
0.17284299365371106,1.7401141784638106,12.299182564310618
0.1734537462814627,1.7396139099027126,12.291421225395874
0.17406449890921433,1.7391202892322621,12.283316879169288
0.17467525153696598,1.738633049979124,12.274867914680044
0.1752860041647176,1.738151927977162,12.266073513801603
0.17589675679246922,1.7376766619549984,12.256933651593043
0.17650750942022086,1.7372069941073582,12.247449094120896
0.17711826204797246,1.7367426706487668,12.237621393773017
0.1777290146757241,1.7362834423481863,12.227452882101424
0.17833976730347573,1.735829065043286,12.21694666023976
0.17895051993122735,1.735379300133107,12.206106586947332
0.179561272558979,1.7349339150479681,12.194937264339769
0.18017202518673062,1.7344926836955326,12.183444021370965
0.18078277781448224,1.7340553868820536,12.171632895139485
0.18139353044223389,1.7336218127078924,12.159510610096461
0.1820042830699855,1.7331917569365065,12.14708455524157
0.18261503569773715,1.732765023336171,12.134362759394271
0.18322578832548878,1.7323414239938175,12.121353864637141
0.1838365409532404,1.7319207796004406,12.108067098030304
0.18444729358099204,1.7315029197076321,12.094512241702134
0.18505804620874364,1.731087682954884,12.08069960142429
0.18566879883649529,1.7306749172674085,12.066639973784534
0.1862795514642469,1.73026448002429,12.052344612072156
0.18689030409199853,1.7298562381969076,12.037825190995783
0.18750105671975018,1.7294500684576357,12.023093770356036
0.1881118093475018,1.729045857258915,12.00816275779453
0.18872256197525342,1.7286435008829077,11.993044870748882
0.18933331460300507,1.72824290546199,11.977753097736443
0.18994406723075669,1.7278439869704558,11.962300659098958
0.19055481985850833,1.7274466711878775,11.94670096733511
0.19116557248625995,1.727050893634634,11.930967587149196
0.19177632511401158,1.7266565994802259,11.91511419534776
0.19238707774176322,1.7262637434250343,11.89915454070836
0.19299783036951482,1.7258722895562788,11.883102403950858
0.19360858299726647,1.72548221117899,11.866971557935171
0.19421933562501809,1.725093490622868,11.850775728210287
0.1948300882527697,1.7247061190259774,11.83452855403493
0.19544084088052135,1.7243200960962632,11.818243549990374
0.19605159350827298,1.7239354298519487,11.801934068300207
0.19666234613602462,1.723552136341911,11.785613261970658
0.19727309876377624,1.7231702393471822,11.769294048860335
0.19788385139152787,1.7227897700647576,11.752989076784578
0.1984946040192795,1.7224107667749444,11.736710689755403
0.19910535664703113,1.722033274493499,11.7204708954531
0.19971610927478275,1.7216573446098427,11.704281334022046
0.20032686190253438,1.721283034512668,11.688153248276471
0.200937614530286,1.720910407204253,11.672097455396399
0.20154836715803764,1.7205395309048461,11.65612432019316
0.20215911978578927,1.7201704786484597,11.640243730009129
0.20276987241354089,1.7198033278714449,11.624465071320842
0.20338062504129253,1.7194381599952082,11.608797208100645
0.20399137766904415,1.7190750600044329,11.593248461989615
0.2046021302967958,1.7187141160221575,11.577826594327417
0.20521288292454742,1.7183554188830679,11.562538790079456
0.20582363555229904,1.7179990617063183,11.547391643691245
0.2064343881800507,1.7176451394692076,11.532391146900775
0.2070451408078023,1.7172937485829973,11.5175426785246
0.2076558934355539,1.7169449864721327,11.502850996233628
0.20826664606330555,1.7165989511581121,11.488320230324659
0.20887739869105718,1.7162557408491952,11.473953879488285
0.20948815131880882,1.7159154535371282,11.45975480856707
0.21009890394656044,1.715578186602007,11.445725248291922
0.21070965657431207,1.7152440364263697,11.431866796978248
0.2113204092020637,1.7149130980195506,11.418180424157649
0.21193116182981533,1.7145854646532988,11.404666476113288
0.21254191445756698,1.7142612275095994,11.391324683285236
