frequency,refractiveIndex,absorption
0.0006107526277516292,2.374272663246484,0.001911066141002895
0.0012215052555032584,2.374115998691518,0.007641978485041076
0.0018322578832548875,2.3738550436839088,0.017185885123880352
0.002443010511006517,2.373490026528182,0.030531387273279375
0.003053763138758146,2.373021265712097,0.047662570752896885
0.003664515766509775,2.372449168778186,0.06855904983068177
0.004275268394261404,2.3717742308872074,0.09319602320684336
0.004886021022013034,2.370997033084041,0.121544341852024
0.005496773649764663,2.3701182402786434,0.15357058835636797
0.006107526277516292,2.3691385989566363,0.18923716739159369
0.006718278905267922,2.3680589346359255,0.2285024068371059
0.00732903153301955,2.366880149087325,0.2713206690744095
0.00793978416077118,2.3656032173386,0.31764247191132194
0.008550536788522809,2.3642291844826393,0.3674146185600319
0.009161289416274438,2.362759162311366,0.4205803360596419
0.009772042044026067,2.3611943257978876,0.47707942150647864
0.010382794671777697,2.3595359094499178,0.53684839543217
0.010993547299529326,2.35778520355787,0.5998206616522072
0.011604299927280955,2.3559435503612067,0.6659266728949627
0.012215052555032585,2.35401234015646,0.7350941015134689
0.012825805182784214,2.351993007370192,0.8072480145794413
0.013436557810535843,2.3498870266196277,0.8823110526609272
0.014047310438287471,2.347695908783033,0.9602036115905296
0.0146580630660391,2.3454211971011953,1.0408440265416932
0.015268815693790731,2.3430644633303173,1.1241487577438898
0.01587956832154236,2.34062730396558,1.210032577184739
0.01649032094929399,2.3381113365534514,1.2984087556671198
0.017101073577045618,2.3355181961094647,1.3891892496118279
0.01771182620479725,2.3328495316568163,1.4822848870213716
0.018322578832548876,2.3301070028997275,1.5776055520470538
0.018933331460300507,2.3272922770439575,1.6750603676297486
0.019544084088052135,2.324407025775343,1.7745578757140912
0.020154836715803762,2.3214529224057165,1.8760062145661025
0.020765589343555393,2.318431639194033,1.979313292754724
0.02137634197130702,2.3153448448488896,2.084386959388883
0.021987094599058652,2.3121942022173103,2.1911351702323416
0.02259784722681028,2.3089813661630205,2.2994661493494086
0.02320859985456191,2.3057079816361474,2.4092885459644755
0.023819352482313542,2.3023756819348518,2.520511586248106
0.02443010511006517,2.298986087158142,2.633045219770689
0.025040857737816797,2.295540802847897,2.7468002603928574
0.025651610365568428,2.292041418816961,2.8616885213882783
0.026262362993320056,2.2884895081591283,2.977622944620048
0.026873115621071687,2.284886626435865,3.0945177236171353
0.027483868248823314,2.281234311033679,3.2122884204191284
0.028094620876574942,2.27753408068536,3.330852076082084
0.028705373504326573,2.2737874351474,3.450127314756415
0.0293161261320782,2.26999585502552,3.570034441270463
0.029926878759829835,2.266160801739476,3.6904955321701163
0.030537631387581463,2.262283717617984,3.8114345201838145
0.03114838401533309,2.258366026114204,3.9327772720978147
0.03175913664308472,2.2544091321319235,4.054451660044245
0.03236988927083635,2.2504144224523497,4.1763876262167114
0.03298064189858798,2.2463832662513172,4.2985172410450305
0.03359139452633961,2.242317015696634,4.420774754871989
0.034202147154091235,2.2382170066152445,4.543096643188402
0.03481289978184286,2.234084559220026,4.66542164549479
0.0354236524095945,2.229920978886078,4.78769079786922
0.036034405037346125,2.225727556966556,4.909847459331489
0.03664515766509775,2.221505571638369,5.03183733210478
0.03725591029284938,2.2172562887682554,5.1536084758854175
0.037866662920601014,2.212980962790121,5.2751113162411505
0.038477415548352635,2.2086808375848057,5.396298647267273
0.03908816817610427,2.204357147353969,5.517125628639533
0.039698920803855904,2.2000111174799377,5.637549777210078
0.040309673431607525,2.1956439653641393,5.757530953302548
0.04092042605935916,2.1912569012368754,5.877031341868544
0.04153117868711079,2.1868511289319135,5.996015428677142
0.04214193131486242,2.182427846619723,6.114449971714871
0.04275268394261404,2.177988247493784,6.232303967981845
0.04336343657036568,2.173533520404852,6.3495486158760786
0.043974189198117304,2.169064850438594,6.466157273363152
0.04458494182586893,2.1645834194325966,6.582105412137341
0.04519569445362056,2.1600904064291795,6.697370567982304
0.045806447081372194,2.155586988061044,6.811932287547747
0.04641719970912382,2.151074338867268,6.925772071761312
0.04702795233687545,2.146553631537685,7.038873316100253
0.047638704964627084,2.1420260370841824,7.15122124795127
0.048249457592378704,2.137492724937924,7.262802861289538
0.04886021022013034,2.132954862972022,7.373606848911705
0.049470962847881966,2.1284136174495814,7.483623532459616
0.050081715475633594,2.123870152897541,7.592844790473105
0.05069246810338522,2.119325631907095,7.701263984710861
0.051303220731136856,2.114781214861999,7.8088758849812185
0.05191397335888848,2.1102380595962362,7.915676592720483
0.05252472598664011,2.1056973209831424,8.021663463560815
0.053135478614391746,2.1011601504582034,8.126835029123768
0.05374623124214337,2.0966276954781615,8.231190918276765
0.054356983869895,2.0921010989193682,8.334731778086157
0.05496773649764663,2.0875814984185,8.437459194696933
0.05557848912539826,2.083070025659054,8.53937561436601
0.056189241753149884,2.0785678056072987,8.640484264871757
0.05679999438090152,2.0740759557013924,8.740789077516448
0.057410747008653146,2.069595584997721,8.840294609934478
0.05802149963640477,2.0651277932785583,8.939005969911284
0.0586322522641564,2.060673670125216,9.036928740412545
0.059243004891908035,2.0562342939610914,9.134068906015996
0.05985375751965967,2.051810731068926,9.230432780929737
0.06046451014741129,2.0474040345867426,9.32602693877435
0.061075262775162925,2.043015243486946,9.42085814429683
0.06168601540291455,2.0386453815429673,9.514933287175017
0.06229676803066618,2.0342954562879916,9.608259318063853
0.0629075206584178,2.0299664579701164,9.700843187023766
0.06351827328616944,2.0256593585083027,9.792691784462264
0.06412902591392107,2.0213751104534445,9.883811884710674
0.0647397785416727,2.017114645958695,9.97421009234656
0.06535053116942433,2.012878875763188,10.063892791362981
0.06596128379717596,2.0086686881931226,10.152866097275876
0.0665720364249276,2.0044849481840585,10.241135812248377
0.06718278905267921,2.0003284963281436,10.328707383303385
0.06779354168043085,1.9962001479498195,10.415585863681791
0.06840429430818247,1.9921006922134288,10.501775877396591
0.06901504693593409,1.9880308912659435,10.58728158702028
0.06962579956368573,1.983991479417869,10.672106664733258
0.07023655219143736,1.979983162365211,10.756254266651753
0.070847304819189,1.9760066164551842,10.839727010441566
0.07145805744694061,1.9720624879981752,10.922526956216588
0.07206881007469225,1.9681513926281986,11.004655590708348
0.07267956270244387,1.9642739147140797,11.086113814686952
0.0732903153301955,1.960430606823094,11.166901933600064
0.07390106795794714,1.956621989238898,11.247019651391792
0.07451182058569876,1.9528485495351957,11.326466067452056
0.0751225732134504,1.9491107422064293,11.40523967663883
0.07573332584120203,1.9454089883566155,11.483338372308166
0.07634407846895366,1.9417436754471968,11.560759452279568
0.07695483109670527,1.9381151571046369,11.637499627654446
0.0775655837244569,1.9345237529882324,11.71355503440104
0.07817633635220854,1.9309697487184818,11.788921247611167
0.07878708897996017,1.927453395866115,11.863593298327146
0.07939784160771181,1.9239749120017369,11.937565692832539
0.08000859423546343,1.920534480805859,12.010832434294267
0.08061934686321505,1.9171322522388683,12.083387046637649
0.08123009949096668,1.9137683427703922,12.155222600532312
0.08184085211871832,1.9104428356672836,12.2263317413619
0.08245160474646994,1.9071557813393392,12.296706719046657
0.08306235737422157,1.9039071977416735,12.366339419584287
0.08367311000197321,1.9006970708325712,12.435221398171622
0.08428386262972484,1.8975253550854128,12.503343913766132
0.08489461525747646,1.8943919740532775,12.570697964945893
0.08550536788522808,1.8912968209845307,12.637274326922109
0.08611612051297972,1.8882397594877114,12.703063589558743
0.08672687314073135,1.8852206242438652,12.768056196252914
0.08733762576848299,1.8822392217643584,12.8322424835271
0.08794837839623461,1.879295331192139,12.89561272118667
0.08855913102398623,1.8763887051442634,12.958157152894204
0.08916988365173786,1.8735190705934972,13.019866037014332
0.0897806362794895,1.8706861297866406,13.080729687582288
0.09039138890724112,1.867889561197207,13.14073851525316
0.09100214153499275,1.8651290205099962,13.199883068086839
0.09161289416274439,1.8624041416350745,13.258154072031166
0.09222364679049602,1.8597145377485673,13.315542470962352
0.09283439941824764,1.857059802357686,13.372039466149785
0.09344515204599926,1.8544395103873434,13.427636555012823
0.0940559046737509,1.8518532192856947,13.482325569041457
0.09466665730150253,1.8493004701458928,13.5360987107567
0.09527740992925417,1.846780788841387,13.588948589591563
0.09588816255700579,1.8442936871720261,13.640868256576928
0.09649891518475741,1.8418386640182678,13.691851237722226
0.09710966781250904,1.8394152065007772,13.74189156598569
0.09772042044026068,1.837022791142741,13.790983811735712
0.09833117306801231,1.8346608850322021,13.839123111607506
0.09894192569576393,1.8323289469817876,13.886305195669353
0.09955267832351557,1.8300264286832129,13.932526412815076
0.10016343095126719,1.8277527758539842,13.977783754308359
0.10077418357901882,1.825507429373785,14.022074875409814
0.10138493620677044,1.823289826408063,14.065398115024749
0.10199568883452208,1.8210994015164141,14.107752513316724
0.10260644146227371,1.8189355877434006,14.149137827238338
0.10321719409002535,1.8167978176895372,14.189554543938591
0.10382794671777695,1.8146855245602191,14.229003892012308
0.10443869934552859,1.8125981431905056,14.26748785056639
0.10504945197328022,1.81053511104367,14.305009156081294
0.10566020460103186,1.8084958691816087,14.341571307057597
0.10627095722878349,1.8064798632052383,14.377178566442122
0.10688170985653511,1.8044865441631257,14.411835961835827
0.10749246248428675,1.8025153694267106,14.445549283493678
0.10810321511203837,1.8005658035305505,14.478325080132308
0.10871396773979,1.7986373189761895,14.510170652570656
0.10932472036754162,1.796729396998292,14.541094045232454
0.10993547299529326,1.7948415282918593,14.57110403555016
0.11054622562304489,1.792973213699438,14.600210121311656
0.11115697825079653,1.7911239648573256,14.628422506002675
0.11176773087854816,1.789293304799966,14.65575208219982
0.11237848350629977,1.787480768521775,14.682210413076774
0.1129892361340514,1.7856859034958144,14.707809712092976
0.11359998876180304,1.7839082701488294,14.732562820936984
0.11421074138955467,1.7821474422922965,14.756483185804056
0.11482149401730629,1.7804030075092474,14.779584832090851
0.11543224664505793,1.7786745674967799,14.801882337596263
0.11604299927280955,1.776961738364247,14.823390804319432
0.11665375190056118,1.7752641508872753,14.844125828951814
0.1172645045283128,1.7735814507178633,14.864103472161792
0.11787525715606444,1.7719132985509314,14.883340226775813
0.11848600978381607,1.7702593702478044,14.901852984959834
0.1190967624115677,1.7686193569172353,14.91965900450934
0.11970751503931934,1.7669929649546507,14.93677587435816
0.12031826766707095,1.765379916040454,14.9532214794148
0.12092902029482258,1.7637799470982765,14.969013964841585
0.12153977292257422,1.7621928102141855,14.984171699887195
0.12215052555032585,1.7606182725179442,14.998713241386039
0.12276127817807747,1.7590561160275202,15.012657297039318
0.1233720308058291,1.7575061374580883,15.026022688588743
0.12398278343358073,1.7559681479968916,15.038828314995534
0.12459353606133236,1.7544419730453447,15.051093115735151
0.125204288689084,1.7529274519299092,15.062836034317575
0.1258150413168356,1.751424437583224,15.074075982139671
0.12642579394458725,1.7499327961971431,15.084831802774351
0.12703654657233887,1.7484524068492777,15.095122236799856
0.12764729920009052,1.746983161104763,15.104965887267515
0.12825805182784214,1.7455249625949598,15.114381185904579
0.12886880445559376,1.744077726574851,15.123386360144567
0.1294795570833454,1.7426413794609161,15.13199940107465
0.13009030971109703,1.74121585835127,15.140238032383294
0.13070106233884865,1.7398011105298954,15.148119680390458
0.13131181496660027,1.7383970929567831,15.155661445235133
0.13192256759435192,1.737003771745792,15.162880073292065
0.13253332022210354,1.7356211216320543,15.169791930883676
0.1331440728498552,1.7342491254307295,15.176412979349331
0.13375482547760678,1.732887773488896,15.182758751527173
0.13436557810535843,1.7315370631323557,15.188844329701018
0.13497633073311005,1.7301969981090906,15.194684325056466
0.1355870833608617,1.7288675880310838,15.200292858687273
0.13619783598861332,1.7275488478161958,15.205683544186767
0.13680858861636494,1.7262407971317206,15.210869471853444
0.13741934124411656,1.7249434598412234,15.215863194534409
0.13803009387186818,1.723656863456213,15.220676715124918
0.13864084649961983,1.7223810385941412,15.22532147573763
0.13925159912737145,1.7211160184441587,15.22980834854707
0.1398623517551231,1.7198618382420487,15.234147628313725
0.14047310438287472,1.7186185347556093,15.2383490265829
0.14108385701062634,1.7173861457817896,15.242421667549708
0.141694609638378,1.7161647096567547,15.246374085578704
0.1423053622661296,1.7149542647800036,15.250214224357032
0.14291611489388123,1.7137548491536059,15.253949437660545
0.14352686752163288,1.71256649993754,15.25758649170291
0.1441376201493845,1.7113892530220434,15.261131569037266
0.14474837277713615,1.7102231426178245,15.264590273971958
0.14535912540488774,1.7090682008648928,15.267967639461961
0.14596987803263936,1.7079244574607066,15.271268135429493
0.146580630660391,1.7067919393082591,15.27449567846706
0.14719138328814263,1.705670670184631,15.277653642870341
0.14780213591589428,1.7045606704304972,15.280744872946299
0.1484128885436459,1.7034619566609763,15.283771696539603
0.14902364117139752,1.7023745414981324,15.286735939714514
0.14963439379914917,1.701298433325402,15.289638942531472
0.1502451464269008,1.7002336360641015,15.292481575851237
0.15085589905465244,1.6991801489721414,15.295264259099653
0.15146665168240406,1.698137966464973,15.297986978923253
0.15207740431015568,1.697107077958757,15.300649308665866
0.15268815693790733,1.6960874677356383,15.30325042859189
0.15329890956565892,1.695079114830999,15.305789146784916
0.15390966219341054,1.6940819929424484,15.308263920646606
0.1545204148211622,1.6930960703602964,15.310672878920274
0.1551311674489138,1.6921213099191539,15.313013844165994
0.15574192007666546,1.6911576689702958,15.315284355609109
0.15635267270441708,1.6902050993743336,15.317481692289906
0.1569634253321687,1.6892635475137128,15.319602896436473
0.15757417795992035,1.6883329543245027,15.32164479698946
0.15818493058767197,1.687413255346893,15.323604033201955
0.15879568321542362,1.6865043807937845,15.325477078244752
0.15940643584317524,1.6856062556368063,15.327260262742506
0.16001718847092686,1.684718799709064,15.32894979817316
0.1606279410986785,1.6838419278239032,15.33054180006051
0.1612386937264301,1.6829755499089065,15.332032310892435
0.16184944635418172,1.6821195711543626,15.333417322702008
0.16246019898193337,1.6812738921753718,15.33469279924513
0.163070951609685,1.680438409186782,15.335854697716895
0.16368170423743664,1.6796130141900716,15.336898989945967
0.16429245686518826,1.678797595171348,15.337821683012407
0.16490320949293988,1.6779920363095455,15.338618839234066
0.16551396212069153,1.6771962181939564,15.339286595472288
0.16612471474844315,1.6764100180501835,15.339821181707881
0.1667354673761948,1.6756333099736163,15.340218938843083
0.16734622000394642,1.674865965169515,15.340476335687551
0.16795697263169804,1.6741078521988029,15.340589985088341
0.16856772525944969,1.6733588372286645,15.340556659170957
0.16917847788720128,1.6726187842870437,15.340373303655717
0.16978923051495293,1.67188755552015,15.340037051222899
0.17039998314270455,1.6711650114520995,15.339545233899639
0.17101073577045617,1.6704510112458184,15.338895394447094
0.17162148839820782,1.6697454129643392,15.338085296727245
0.17223224102595944,1.669048073831677,15.33711293503573
0.17284299365371106,1.6683588504924414,15.335976542387249
0.1734537462814627,1.6676775992693962,15.33467459774528
0.17406449890921433,1.6670041764181904,15.333205832190357
0.17467525153696598,1.6663384383784974,15.331569234025467
0.1752860041647176,1.6656802420208403,15.329764052819472
0.17589675679246922,1.6650294448884144,15.327789802393289
0.17650750942022086,1.6643859054331998,15.32564626275682
0.17711826204797246,1.6637494832457718,15.323333481008298
0.1777290146757241,1.6631200392781516,15.320851771208146
0.17833976730347573,1.6624974360591587,15.318201713248241
0.17895051993122735,1.661881537901691,15.315384150733019
0.179561272558979,1.6612722111014424,15.312400187898069
0.18017202518673062,1.6606693241265829,15.309251185591087
0.18078277781448224,1.660072747797954,15.305938756344547
0.18139353044223389,1.6594823554593925,15.30246475856914
0.1820042830699855,1.6588980231378139,15.298831289905106
0.18261503569773715,1.6583196296927354,15.295040679763405
0.18322578832548878,1.6577470569549464,15.291095481098244
0.1838365409532404,1.6571801898540917,15.286998461447745
0.18444729358099204,1.656618916534953,15.282752593288297
0.18505804620874364,1.6560631284622576,15.278361043743342
0.18566879883649529,1.6555127205138926,15.27382716369303
0.1862795514642469,1.6549675910624295,15.269154476332783
0.18689030409199853,1.6544276420449038,15.264346665226196
0.18750105671975018,1.6538927790208457,15.259407561904254
0.1881118093475018,1.6533629112185664,15.25434113305847
0.18872256197525342,1.652837951569786,15.249151467381001
0.18933331460300507,1.6523178167326746,15.243842762102027
0.18994406723075669,1.6518024271034524,15.23841930927631
0.19055481985850833,1.6512917068167114,15.232885481871923
0.19116557248625995,1.6507855837346606,15.227245719712926
0.19177632511401158,1.6502839894255195,15.221504515328368
0.19238707774176322,1.6497868591313367,15.215666399759453
0.19299783036951482,1.649294131725511,15.209735928376382
0.19360858299726647,1.648805749660356,15.203717666756491
0.19421933562501809,1.6483216589050411,15.197616176673208
0.1948300882527697,1.6478418088742952,15.191436002245378
0.19544084088052135,1.6473661523482694,15.185181656294514
0.19605159350827298,1.6468946453839814,15.178857606958923
0.19666234613602462,1.6464272472187906,15.172468264607703
0.19727309876377624,1.6459639201663585,15.1660179691005
0.19788385139152787,1.6455046295055813,15.159510977435051
0.1984946040192795,1.6450493433629965,15.152951451822675
0.19910535664703113,1.6445980325891623,15.146343448230878
0.19971610927478275,1.6441506706295423,15.13969090542933
0.20032686190253438,1.643707233390429,15.13299763457413
0.200937614530286,1.6432676991004407,15.126267309362058
0.20154836715803764,1.6428320481681526,15.119503456785834
0.20215911978578927,1.6424002630364023,15.112709448515652
0.20276987241354089,1.6419723280338323,15.105888492934211
0.20338062504129253,1.6415482292242276,15.099043627846106
0.20399137766904415,1.641127954254201,15.092177713882368
0.2046021302967958,1.6407114921997745,15.085293428615772
0.20521288292454742,1.6402988334124189,15.078393261402121
0.20582363555229904,1.6398899693650768,15.07147950895931
0.2064343881800507,1.6394848924987022,15.064554271691623
0.2070451408078023,1.6390835960698644,15.057619450766872
0.2076558934355539,1.638686073999889,15.05067674594769
0.20826664606330555,1.6382923207260656,15.043727654178959
0.20887739869105718,1.6379023310553893,15.036773468928452
0.20948815131880882,1.6375161000213065,15.029815280274692
0.21009890394656044,1.637133622743913,15.022853975736032
0.21070965657431207,1.63675489429404,15.015890241828847
0.2113204092020637,1.636379909561626,15.008924566343847
0.21193116182981533,1.6360086631287785,15.001957241321872
0.21254191445756698,1.63564114914787,14.994988366715452
