frequency,refractiveIndex,absorption
0.0006107526277516292,1.6377148225792133,0.003242058367509165
0.0012215052555032584,1.6344373499258036,0.012657978461802106
0.0018322578832548875,1.6293113370950902,0.0273840743801281
0.002443010511006517,1.6227715563939498,0.0461808702016999
0.003053763138758146,1.6153100824287492,0.06766224455654343
0.003664515766509775,1.6074029653249222,0.090509128076301
0.004275268394261404,1.5994565959159253,0.11361965651121549
0.004886021022013034,1.5917802065895394,0.13617916357734974
0.005496773649764663,1.584581991520652,0.1576610125768648
0.006107526277516292,1.5779812290932416,0.17778348928303828
0.006718278905267922,1.5720279418604668,0.1964486730088587
0.00732903153301955,1.5667235449533916,0.21368199238684638
0.00793978416077118,1.5620387131245956,0.2295822475417909
0.008550536788522809,1.557927051956091,0.24428494800789943
0.009161289416274438,1.5543346306189054,0.2579378583570503
0.009772042044026067,1.5512061091403162,0.2706860849707984
0.010382794671777697,1.5484883532767402,0.28266389338495507
0.010993547299529326,1.5461323350138652,0.2939909194609996
0.011604299927280955,1.5440939360123411,0.3047710583120214
0.012215052555032585,1.5423340914562487,0.3150928682116135
0.012825805182784214,1.5408185657169238,0.3250307478283407
0.013436557810535843,1.5395175445375262,0.33464643804649985
0.014047310438287471,1.5384051554812908,0.3439905914719695
0.0146580630660391,1.537458980799376,0.35310427272698774
0.015268815693790731,1.5366595969937498,0.36202032474087986
0.01587956832154236,1.5359901572368826,0.370764577781418
0.01649032094929399,1.5354360222437053,0.3793569006666286
0.017101073577045618,1.5349844393283656,0.3878121050280495
0.01771182620479725,1.5346242663692802,0.39614071841017273
0.018322578832548876,1.5343457360790433,0.4043496432813569
0.018933331460300507,1.534140255604658,0.41244271842465974
0.019544084088052135,1.534000236627437,0.4204211976754471
0.020154836715803762,1.5339189515286058,0.42828415913899487
0.020765589343555393,1.5338904116850767,0.4360288561608428
0.02137634197130702,1.5339092644756467,0.44365101958565833
0.021987094599058652,1.5339707060672652,0.4511451192928418
0.02259784722681028,1.534070407493477,0.4585045916561088
0.02320859985456191,1.5342044519256592,0.4657220384335447
0.023819352482313542,1.534369281372332,0.47278940163553496
0.02443010511006517,1.5345616513265352,0.4796981181181489
0.025040857737816797,1.534778592121458,0.4864392569851627
0.025651610365568428,1.5350173759558903,0.49300364233383254
0.026262362993320056,1.535275488719418,0.4993819634254422
0.026873115621071687,1.5355506058876243,0.5055648739890735
0.027483868248823314,1.5358405718744277,0.5115430820590012
0.028094620876574942,1.5361433823259867,0.5173074314928051
0.028705373504326573,1.5364571689216426,0.5228489761091724
0.0293161261320782,1.5367801863148622,0.5281590472122243
0.029926878759829835,1.5371108009034904,0.5332293151288667
0.030537631387581463,1.537447481165671,0.5380518452689601
0.03114838401533309,1.5377887893371882,0.5426191491240123
0.03175913664308472,1.5381333742389707,0.5469242305417429
0.03236988927083635,1.5384799650912933,0.5509606275511968
0.03298064189858798,1.5388273661745215,0.5547224499618375
0.03359139452633961,1.539174452216001,0.5582044129188982
0.034202147154091235,1.5395201643993757,0.561401866565053
0.03481289978184286,1.5398635069067845,0.5643108219328223
0.0354236524095945,1.5402035439164268,0.5669279731727743
0.036034405037346125,1.5405393969883185,0.5692507162083065
0.03664515766509775,1.5408702427798318,0.5712771638977989
0.03725591029284938,1.5411953110402117,0.5730061577778548
0.037866662920601014,1.541513882839797,0.5744372764587111
0.038477415548352635,1.5418252889953021,0.5755708407410377
0.03908816817610427,1.5421289086574703,0.5764079155247733
0.039698920803855904,1.5424241680316342,0.5769503085832917
0.040309673431607525,1.5427105392055254,0.577200566280327
0.04092042605935916,1.5429875390619328,0.5771619663117418
0.04153117868711079,1.5432547282567264,0.5768385075608828
0.04214193131486242,1.5435117102453388,0.5762348971617467
0.04275268394261404,1.5437581303430845,0.57535653487206
0.04336343657036568,1.5439936748067207,0.5742094948641969
0.043974189198117304,1.5442180699265031,0.5728005050497297
0.04458494182586893,1.544431081119587,0.5711369240597739
0.04519569445362056,1.5446325120171276,0.5692267160098001
0.045806447081372194,1.5448222035387305,0.5670784231839613
0.04641719970912382,1.5450000329490912,0.5647011367795981
0.04702795233687545,1.545165912892758,0.5621044658574987
0.047638704964627084,1.545319790403884,0.5592985046482067
0.048249457592378704,1.5454616458887362,0.5562937983684356
0.04886021022013034,1.5455914920794824,0.5531013077047203
0.049470962847881966,1.5457093729584959,0.5497323721236324
0.050081715475633594,1.5458153626530415,0.5461986721698054
0.05069246810338522,1.5459095643007434,0.5425121909133608
0.051303220731136856,1.5459921088867625,0.5386851747088451
0.05191397335888848,1.5460631540540055,0.5347300934265923
0.05252472598664011,1.5461228828880877,0.530659600316329
0.053135478614391746,1.5461715026790945,0.5264864916605194
0.05374623124214337,1.5462092436624433,0.5222236663719045
0.054356983869895,1.5462363577414002,0.5178840856866996
0.05496773649764663,1.5462531171939788,0.5134807331002694
0.05557848912539826,1.5462598133670964,0.5090265746877841
0.056189241753149884,1.5462567553609814,0.5045345199472947
0.05679999438090152,1.5462442687068951,0.5000173832967945
0.057410747008653146,1.5462226940412818,0.4954878463512716
0.05802149963640477,1.5461923857794793,0.49095842109911597
0.0586322522641564,1.5461537107921124,0.4864414140908801
0.059243004891908035,1.5461070470872609,0.4819488917465746
0.05985375751965967,1.5460527825014452,0.47749264688058596
0.06046451014741129,1.545991313402399,0.47308416653645746
0.061075262775162925,1.5459230434065183,0.46873460121619287
0.06168601540291455,1.5458483821137663,0.464454735581969
0.06229676803066618,1.5457677438627135,0.4602549607006095
0.0629075206584178,1.5456815465082638,0.456145247894109
0.06351827328616944,1.5455902102244938,0.4521351242524954
0.06412902591392107,1.5454941563348834,0.448233649858078
0.0647397785416727,1.5453938061720973,0.4444493967635751
0.06535053116942433,1.5452895799693143,0.4407904297596755
0.06596128379717596,1.5451818957849632,0.4372642889612375
0.0665720364249276,1.5450711684625797,0.4338779742346671
0.06718278905267921,1.5449578086273528,0.4306379314836006
0.06779354168043085,1.5448422217207765,0.4275500408029294
0.06840429430818247,1.5447248070747015,0.42461960650680625
0.06901504693593409,1.5446059570259105,0.4218513490297519
0.06962579956368573,1.544486056072239,0.41924939869525757
0.07023655219143736,1.5443654800711089,0.41681729134100354
0.070847304819189,1.5442445954812245,0.41455796578525467
0.07145805744694061,1.5441237586480543,0.41247376311373285
0.07206881007469225,1.544003315133609,0.41056642776294794
0.07267956270244387,1.5438835990909063,0.4088371103703465
0.0732903153301955,1.5437649326834157,0.4072863723589183
0.07390106795794714,1.5436476255496585,0.4059141922191779
0.07451182058569876,1.543531974313055,0.4047199734481359
0.0751225732134504,1.5434182621370125,0.40370255410121836
0.07573332584120203,1.543306758325145,0.40286021790984633
0.07634407846895366,1.5431977179664618,0.40219070691392295
0.07695483109670527,1.5430913816252432,0.4016912355558417
0.0775655837244569,1.542987975075274,0.40135850617906377
0.07817633635220854,1.5428877090780175,0.4011887258720697
0.07878708897996017,1.5427907792042441,0.4011776245953377
0.07939784160771181,1.5426973656985579,0.4013204745267873
0.08000859423546343,1.5426076333862064,0.4016121105582428
0.08061934686321505,1.5425217316214888,0.4020469518736906
0.08123009949096668,1.5424397942770096,0.4026190245370316
0.08184085211871832,1.5423619397729849,0.4033219850159982
0.08245160474646994,1.5422882711457238,0.404149144565778
0.08306235737422157,1.5422188761543716,0.4050934943949518
0.08367311000197321,1.5421538274249287,0.4061477315340504
0.08428386262972484,1.542093182630517,0.40730428532578117
0.08489461525747646,1.5420369847067978,0.40855534445426206
0.08550536788522808,1.541985262101401,0.409892884429671
0.08611612051297972,1.5419380290561666,0.41130869544328547
0.08672687314073135,1.5418952859209507,0.41279441050729393
0.08733762576848299,1.5418570194976942,0.4143415337928408
0.08794837839623461,1.541823203413398,0.4159414690792582
0.08855913102398623,1.5417937985206105,0.4175855482273665
0.08916988365173786,1.541768753323972,0.4192650595895591
0.0897806362794895,1.5417480044313239,0.42097127626941466
0.09039138890724112,1.5417314770278392,0.42269548414446934
0.09100214153499275,1.5417190853715925,0.42442900956598395
0.09161289416274439,1.5417107333089437,0.42616324665103433
0.09222364679049602,1.5417063148080776,0.4278896840831875
0.09283439941824764,1.5417057145089985,0.4295999313398367
0.09344515204599926,1.5417088082882564,0.43128574426587907
0.0940559046737509,1.5417154638366477,0.4329390499159611
0.09466665730150253,1.5417255412481106,0.43455197058961603
0.09527740992925417,1.541738893618022,0.4361168469867009
0.09588816255700579,1.541755367649075,0.4376262604132051
0.09649891518475741,1.5417748042629205,0.43907305397157104
0.09710966781250904,1.5417970392157483,0.440450352672237
0.09772042044026068,1.541821903715972,0.4417515824082446
0.09833117306801231,1.5418492250422056,0.4429704877378436
0.09894192569576393,1.5418788271597277,0.4441011484251829
0.09955267832351557,1.541910531333634,0.4451379946933973
0.10016343095126719,1.5419441567369276,0.44607582114944905
0.10077418357901882,1.541979521051804,0.4469097993450211
0.10138493620677044,1.5420164410624424,0.447635488943046
0.10199568883452208,1.5420547332376493,0.44824884746462496
0.10260644146227371,1.5420942143017489,0.44874623859663787
0.10321719409002535,1.5421347017921787,0.4491244390461101
0.10382794671777695,1.542176014602301,0.44938064393232185
0.10443869934552859,1.5422179735080086,0.4495124707139567
0.10504945197328022,1.542260401676787,0.4495179616538835
0.10566020460103186,1.542303125157952,0.44939558482959796
0.10627095722878349,1.5423459733528826,0.4491442337030805
0.10688170985653511,1.5423887794641413,0.44876322526906826
0.10749246248428675,1.5424313809224763,0.44825229680614637
0.10810321511203837,1.5424736197907734,0.44761160126007754
0.10871396773979,1.5425153431441492,0.4468417012936875
0.10932472036754162,1.5425564034254458,0.4459435620425478
0.10993547299529326,1.5425966587755076,0.4449185426200213
0.11054622562304489,1.542635973337715,0.4437683864195119
0.11115697825079653,1.5426742175363486,0.4424952102657761
0.11176773087854816,1.542711268328462,0.44110149247100694
0.11237848350629977,1.5427470094290485,0.4395900598542197
0.1129892361340514,1.5427813315093735,0.4379640737862731
0.11359998876180304,1.542814132368458,0.4362270153250856
0.11421074138955467,1.5428453170777887,0.4343826695080823
0.11482149401730629,1.5428747980994213,0.4324351088710678
0.11543224664505793,1.5429024953777457,0.43038867626435284
0.11604299927280955,1.5429283364052615,0.428247967038275
0.11665375190056118,1.5429522562627962,0.4260178106713231
0.1172645045283128,1.5429741976346918,0.42370325191473707
0.11787525715606444,1.5429941107995426,0.4213095315276286
0.11848600978381607,1.5430119535971571,0.41884206667691176
0.1190967624115677,1.5430276913724719,0.4163064310759444
0.11970751503931934,1.5430412968972114,0.4137083349348384
0.12031826766707095,1.543052750270146,0.4110536047949627
0.12092902029482258,1.5430620387968506,0.40834816331876683
0.12153977292257422,1.543069156849906,0.40559800910441995
0.12215052555032585,1.5430741057105422,0.4028091965933347
0.12276127817807747,1.5430768933927383,0.3999878161365362
0.1233720308058291,1.5430775344508374,0.39713997428388953
0.12398278343358073,1.5430760497717542,0.39427177435762506
0.12459353606133236,1.5430724663528759,0.39138929736934086
0.125204288689084,1.5430668170667652,0.38849858333690146
0.1258150413168356,1.5430591404137908,0.38560561305489344
0.12642579394458725,1.5430494802638128,0.38271629036947
0.12703654657233887,1.5430378855880498,0.37983642500523507
0.12764729920009052,1.543024410182253,0.3769717159891958
0.12825805182784214,1.5430091123823029,0.37412773571309854
0.12886880445559376,1.5429920547733336,0.3713099146728278
0.1294795570833454,1.5429733038934768,0.36852352691994816
0.13009030971109703,1.5429529299332907,0.3657736762576443
0.13070106233884865,1.5429310064319322,0.3630652832097977
0.13131181496660027,1.5429076099710897,0.360403072788727
0.13192256759435192,1.5428828198676814,0.3577915630843908
0.13253332022210354,1.5428567178662849,0.35523505469404404
0.1331440728498552,1.5428293878322394,0.3527376210088566
0.13375482547760678,1.542800915446327,0.35030309937046666
0.13436557810535843,1.5427713879019005,0.34793508310794147
0.13497633073311005,1.542740893605298,0.34563691446210276
0.1355870833608617,1.5427095218803448,0.3434116784021052
0.13619783598861332,1.5426773626776957,0.34126219733550134
0.13680858861636494,1.5426445062897511,0.33919102671113904
0.13741934124411656,1.5426110430718245,0.33720045151110667
0.13803009387186818,1.5425770631702063,0.3352924836257078
0.13864084649961983,1.5425426562577331,0.333468860102881
0.13925159912737145,1.5425079112774214,0.3317310422612431
0.1398623517551231,1.5424729161946973,0.33008021565366324
0.14047310438287472,1.5424377577587025,0.3285172908661096
0.14108385701062634,1.5424025212731292,0.32704290513447876
0.141694609638378,1.5423672903769832,0.3256574247602992
0.1423053622661296,1.5423321468356517,0.32436094830401024
0.14291611489388123,1.5422971703426012,0.3231533105331879
0.14352686752163288,1.5422624383319996,0.32203408710109094
0.1441376201493845,1.5422280258025174,0.32100259992951974
0.14474837277713615,1.5421940051525278,0.320057923268232
0.14535912540488774,1.542160446026887,0.3191988904024231
0.14596987803263936,1.5421274151754443,0.3184241009774942
0.146580630660391,1.5420949763233927,0.31773192891009383
0.14719138328814263,1.5420631900535413,0.31712053085277797
0.14780213591589428,1.542032113700555,0.31658785517872917
0.1484128885436459,1.542001801257176,0.31613165145211486
0.14902364117139752,1.5419723032924058,0.3157494803488763
0.14963439379914917,1.5419436668816062,0.31543872399186595
0.1502451464269008,1.5419159355484362,0.3151965966637065
0.15085589905465244,1.5418891492185165,0.3150201558604355
0.15146665168240406,1.5418633441846907,0.3149063136478293
0.15207740431015568,1.541838553083717,0.3148518482831364
0.15268815693790733,1.5418148048842022,0.31485341606328027
0.15329890956565892,1.5417921248855615,0.31490756336181164
0.15390966219341054,1.5417705347277677,0.31501073881575686
0.1545204148211622,1.5417500524116232,0.31515930562411487
0.1551311674489138,1.5417306923292724,0.31534955391999614
0.15574192007666546,1.5417124653046406,0.3155777131779917
0.15635267270441708,1.5416953786434804,0.3158399646193476
0.1569634253321687,1.5416794361926667,0.31613245357785524
0.15757417795992035,1.541664638408384,0.31645130178945635
0.15818493058767197,1.541650982432813,0.31679261956973037
0.15879568321542362,1.541638462178923,0.3171525178439404
0.15940643584317524,1.5416270684229498,0.3175271199949897
0.16001718847092686,1.5416167889041341,0.3179125734959446
0.1606279410986785,1.541607608431274,0.31830506129438785
0.1612386937264301,1.541599508995643,0.31870081291725044
0.16184944635418172,1.5415924698898051,0.3190961152658115
0.16246019898193337,1.5415864678318631,0.3194873230720313
0.163070951609685,1.5415814770946503,0.3198708689884983
0.16368170423743664,1.5415774696393905,0.32024327328578456
0.16429245686518826,1.5415744152533328,0.3206011531327432
0.16490320949293988,1.5415722816908688,0.3209412314365145
0.16551396212069153,1.5415710348176368,0.3212603452208967
0.16612471474844315,1.5415706387571253,0.3215554535234459
0.1667354673761948,1.5415710560392741,0.32182364479311865
0.16734622000394642,1.541572247750593,0.32206214377269415
0.16795697263169804,1.5415741736853057,0.32226831785127935
0.16856772525944969,1.5415767924970403,0.3224396828748145
0.16917847788720128,1.5415800618505966,0.32257390840376277
0.16978923051495293,1.5415839385733245,0.3226688224097599
0.17039998314270455,1.5415883788056588,0.32272241540425356
0.17101073577045617,1.5415933381503677,0.32273284399454727
0.17162148839820782,1.5415987718200845,0.32269843386463115
0.17223224102595944,1.5416046347827046,0.3226176821796313
0.17284299365371106,1.541610881904249,0.32248925941535045
0.1734537462814627,1.5416174680888022,0.32231201061552217
0.17406449890921433,1.5416243484151588,0.32208495608175247
0.17467525153696598,1.5416314782698295,0.32180729150280885
0.1752860041647176,1.541638813476067,0.3214783875315419
0.17589675679246922,1.5416463104186056,0.32109778881952283
0.17650750942022086,1.541653926163815,0.3206652125213151
0.17711826204797246,1.5416616185750025,0.3201805462815634
0.1777290146757241,1.5416693464226083,0.31964384571975435
0.17833976730347573,1.5416770694890647,0.31905533142911574
0.17895051993122735,1.5416847486681184,0.3184153855070253
0.179561272558979,1.5416923460584218,0.3177245476361421
0.18017202518673062,1.5416998250512424,0.3169835107361119
0.18078277781448224,1.541707150412143,0.3161931162072298
0.18139353044223389,1.5417142883565205,0.3153543487881183
0.1820042830699855,1.5417212066189088,0.3144683310505759
0.18261503569773715,1.5417278745159761,0.3135363175554093
0.18322578832548878,1.5417342630031616,0.31255968869393047
0.1838365409532404,1.5417403447249343,0.31153994424013715
0.18444729358099204,1.5417460940586563,0.31047869663939964
0.18505804620874364,1.5417514871520754,0.30937766405956046
0.18566879883649529,1.5417565019544763,0.30823866323086446
0.1862795514642469,1.5417611182415445,0.3070636021012656
0.18689030409199853,1.5417653176340216,0.3058544723337822
0.18750105671975018,1.5417690836102387,0.3046133416723077
0.1881118093475018,1.5417724015126386,0.30334234620275735
0.18872256197525342,1.5417752585484135,0.30204368253559766
0.18933331460300507,1.5417776437843973,0.3007195999360268
0.18994406723075669,1.5417795481363712,0.2993723924274313
0.19055481985850833,1.5417809643529485,0.2980043908935011
0.19116557248625995,1.5417818869942272,0.2966179552037202
0.19177632511401158,1.541782312405396,0.2952154663863612
0.19238707774176322,1.5417822386855085,0.29379931887284516
0.19299783036951482,1.541781665651632,0.29237191283580927
0.19360858299726647,1.5417805947986047,0.2909356466435168
0.19421933562501809,1.5417790292546198,0.28949290945139067
0.1948300882527697,1.5417769737328892,0.2880460739513083
0.19544084088052135,1.5417744344796218,0.2865974892979661
0.19605159350827298,1.5417714192185683,0.2851494742310107
0.19666234613602462,1.5417679370923887,0.28370431041017374
0.19727309876377624,1.5417639986010938,0.28226423598014794
0.19788385139152787,1.5417596155378244,0.2808314393803908
0.1984946040192795,1.5417548009222246,0.2794080534143902
0.19910535664703113,1.5417495689316703,0.27799614959162033
0.19971610927478275,1.5417439348306121,0.276597732754244
0.20032686190253438,1.5417379148982957,0.275214735999718
0.200937614530286,1.5417315263551061,0.273849015909134
0.20154836715803764,1.541724787287803,0.2725023480901593
0.20215911978578927,1.5417177165738862,0.27117642304214834
0.20276987241354089,1.5417103338053446,0.2698728423500677
0.20338062504129253,1.541702659212029,0.2685931152126626
0.20399137766904415,1.541694713584883,0.26733865530905404
0.2046021302967958,1.5416865181992687,0.26611077800723876
0.20521288292454742,1.5416780947386044,0.2649106979164241
0.20582363555229904,1.5416694652185403,0.2637395267844971
0.2064343881800507,1.5416606519118767,0.2625982717405866
0.2070451408078023,1.5416516772744329,0.2614878338818457
0.2076558934355539,1.5416425638720583,0.2604090072024911
0.20826664606330555,1.5416333343089774,0.2593624778622663
0.20887739869105718,1.5416240111576425,0.2583488237904041
0.20948815131880882,1.5416146168902696,0.25736851462057536
