frequency,refractiveIndex,absorption
0.0006107526277516292,1.368659343210872,-0.0002267956895613187
0.0012215052555032584,1.3686783437148622,-0.000907346246520544
0.0018322578832548875,1.3687099752184286,-0.002042141382670091
0.002443010511006517,1.3687541838120725,-0.003631994777009397
0.003053763138758146,1.368810894212337,-0.0056780403244429435
0.003664515766509775,1.3688800099510792,-0.008181726903284111
0.004275268394261404,1.3689614136177857,-0.01114481168077797
0.004886021022013034,1.3690549671544352,-0.014569351981273472
0.005496773649764663,1.3691605122018362,-0.01845769574682749
0.006107526277516292,1.3692778704966762,-0.02281247062528894
0.006718278905267922,1.369406844318025,-0.027636571725830023
0.00732903153301955,1.3695472169820528,-0.032933148086800396
0.00793978416077118,1.3696987533836122,-0.0387055879052795
0.008550536788522809,1.3698612005830892,-0.04495750258248486
0.009161289416274438,1.3700342884369725,-0.051692709643182955
0.009772042044026067,1.3702177302703007,-0.058915214591325246
0.010382794671777697,1.3704112235891623,-0.06662919176814287
0.010993547299529326,1.370614450831343,-0.07483896428224605
0.011604299927280955,1.3708270801529014,-0.083548983084698
0.012215052555032585,1.3710487662487236,-0.09276380526520975
0.012825805182784214,1.371279151204685,-0.10248807164789348
0.013436557810535843,1.3715178653791575,-0.11272648376819551
0.014047310438287471,1.3717645283115456,-0.12348378031412839
0.0146580630660391,1.372018749655368,-0.13476471311737356
0.015268815693790731,1.372280130133405,-0.14657402278111858
0.01587956832154236,1.3725482625124623,-0.15891641403289108
0.01649032094929399,1.3728227325950977,-0.17179653089179944
0.017101073577045618,1.373103120225814,-0.1852189317401493
0.01771182620479725,1.3733890003089924,-0.19918806439000417
0.018322578832548876,1.373679943836111,-0.21370824123519142
0.018933331460300507,1.3739755189194005,-0.22878361457939655
0.019544084088052135,1.374275291829474,-0.24441815223036167
0.020154836715803762,1.3745788280341644,-0.26061561344943573
0.020765589343555393,1.3748856932360611,-0.2773795253449571
0.02137634197130702,1.3751954544059577,-0.2947131597965408
0.021987094599058652,1.3755076808098408,-0.31261951099573765
0.02259784722681028,1.3758219450265872,-0.3311012736867839
0.02320859985456191,1.3761378239541202,-0.3501608221892872
0.023819352482313542,1.376454899801225,-0.3698001902819905
0.02443010511006517,1.3767727610628375,-0.3900210520244202
0.025040857737816797,1.3770910034761659,-0.4108247035907687
0.025651610365568428,1.3774092309554766,-0.4322120461861252
0.026262362993320056,1.3777270565030681,-0.45418357011352806
0.026873115621071687,1.3780441030943555,-0.47673934005570395
0.027483868248823314,1.3783600045347404,-0.49987898163170824
0.028094620876574942,1.378674406286286,-0.5236016692854897
0.028705373504326573,1.3789869662620842,-0.5479061155583692
0.0293161261320782,1.3792973555864054,-0.5727905617940061
0.029926878759829835,1.3796052593187693,-0.5982527703193702
0.030537631387581463,1.379910377140145,-0.6242900181407305
0.03114838401533309,1.3802124239995777,-0.6508990921893903
0.03175913664308472,1.3805111307197209,-0.678076286146044
0.03236988927083635,1.3808062445596871,-0.7058173988685931
0.03298064189858798,1.381097529733959,-0.7341177344423662
0.03359139452633961,1.381384767885931,-0.7629721038668387
0.034202147154091235,1.3816677585150503,-0.7923748283875096
0.03481289978184286,1.381946319356448,-0.8223197444759648
0.0354236524095945,1.3822202867120787,-0.8528002104559589
0.036034405037346125,1.3824895157326496,-0.8838091147677755
0.03664515766509775,1.3827538806495647,-0.915338885857367
0.03725591029284938,1.3830132749563404,-0.9473815036716207
0.037866662920601014,1.3832676115390679,-0.9799285127348984
0.038477415548352635,1.3835168227555725,-1.0129710367771387
0.03908816817610427,1.3837608604630833,-1.0464997948784516
0.039698920803855904,1.3839996959944338,-1.0805051190882364
0.040309673431607525,1.384233320082755,-1.1149769734736528
0.04092042605935916,1.3844617427349641,-1.1499049745456433
0.04153117868711079,1.3846849930543907,-1.1852784130053409
0.04214193131486242,1.3849031190129037,-1.22108627675051
0.04275268394261404,1.3851161871733901,-1.257317275073707
0.04336343657036568,1.3853242823630363,-1.2939598639831462
0.043974189198117304,1.3855275072985445,-1.331002272568672
0.04458494182586893,1.3857259821641401,-1.3684325303343092
0.04519569445362056,1.3859198441435672,-1.4062384954126634
0.045806447081372194,1.3861092469073206,-1.4444078835736727
0.04641719970912382,1.3862943600565447,-1.4829282979357905
0.04702795233687545,1.386475368525026,-1.5217872592856
0.047638704964627084,1.3866524719409872,-1.560972236907731
0.048249457592378704,1.3868258839504017,-1.6004706798245
0.04886021022013034,1.3869958315036712,-1.6402700483428883
0.049470962847881966,1.3871625541076364,-1.6803578458032533
0.050081715475633594,1.3873263030450425,-1.720721650423399
0.05069246810338522,1.3874873405634862,-1.761349147130578
0.051303220731136856,1.3876459390362725,-1.802228159270957
0.05191397335888848,1.3878023800974002,-1.8433466800878637
0.05252472598664011,1.3879569537531504,-1.884692903858468
0.053135478614391746,1.3881099574727673,-1.9262552565786915
0.05374623124214337,1.3882616952608173,-1.9680224260871222
0.054356983869895,1.3884124767138235,-2.009983391519486
0.05496773649764663,1.3885626160639082,-2.052127451985816
0.05557848912539826,1.3887124312121213,-2.094444254365402
0.056189241753149884,1.3888622427543158,-2.1369238201153995
0.05679999438090152,1.3890123730022306,-2.1795565709932037
0.057410747008653146,1.3891631450028126,-2.222333353591997
0.05802149963640477,1.3893148815584389,-2.265245462598376
0.0586322522641564,1.3894679042510052,-2.308284662677119
0.059243004891908035,1.3896225324727116,-2.351443208898898
0.05985375751965967,1.389779082466392,-2.39471386562675
0.06046451014741129,1.389937866378164,-2.4380899237844935
0.061075262775162925,1.3900991913253722,-2.4815652164330437
0.06168601540291455,1.390263358482301,-2.5251341325902743
0.06229676803066618,1.3904306621867175,-2.5687916292299557
0.0629075206584178,1.3906013890696178,-2.6125332414076947
0.06351827328616944,1.3907758172109848,-2.6563550904630358
0.06412902591392107,1.3909542153239842,-2.700253890257579
0.0647397785416727,1.391136841970063,-2.7442269514135105
0.06535053116942433,1.3913239448073509,-2.7882721835250064
0.06596128379717596,1.391515759874592,-2.8323880953222487
0.0665720364249276,1.3917125109127522,-2.8765737927760826
0.06718278905267921,1.3919144087263775,-2.920828975137118
0.06779354168043085,1.3921216505865648,-2.965153928913781
0.06840429430818247,1.3923344196773677,-3.009549519799066
0.06901504693593409,1.3925528845872628,-3.054017182564406
0.06962579956368573,1.3927771988471533,-3.098558908948868
0.07023655219143736,1.393007500516278,-3.1431772335767465
0.070847304819189,1.3932439118171684,-3.187875217946712
0.07145805744694061,1.3934865388207611,-3.2326564325421705
0.07206881007469225,1.393735471182346,-3.277524937121472
0.07267956270244387,1.3939907819292208,-3.3224852592514713
0.0732903153301955,1.3942525273003779,-3.367542371158784
0.07390106795794714,1.3945207466386913,-3.412701664975497
0.07451182058569876,1.3947954623355707,-3.457968926467104
0.0751225732134504,1.395076679828222,-3.5033503073338323
0.07573332584120203,1.395364387649157,-3.5488522961821944
0.07634407846895366,1.3956585575275284,-3.594481688273298
0.07695483109670527,1.3959591445418411,-3.6402455541518925
0.0775655837244569,1.396266087323086,-3.6861512072736993
0.07817633635220854,1.3965793083075277,-3.7322061707447127
0.07878708897996017,1.3968987140378362,-3.7784181432958346
0.07939784160771181,1.3972241955114815,-3.8247949646150565
0.08000859423546343,1.3975556285748012,-3.871344580164266
0.08061934686321505,1.3978928743612093,-3.9180750056098304
0.08123009949096668,1.3982357797717775,-3.9649942909956084
0.08184085211871832,1.398584177996304,-4.012110484790567
0.08245160474646994,1.398937889072903,-4.059431597940584
0.08306235737422157,1.3992967204838835,-4.106965568057417
0.08367311000197321,1.399660467785761,-4.1547202238726575
0.08428386262972484,1.4000289152710084,-4.202703250086744
0.08489461525747646,1.400401836659097,-4.250922152739668
0.08550536788522808,1.4007789958143497,-4.299384225226893
0.08611612051297972,1.4011601474879323,-4.348096515083209
0.08672687314073135,1.4015450380814212,-4.39706579165074
0.08733762576848299,1.4019334064292108,-4.446298514746327
0.08794837839623461,1.4023249845970007,-4.495800804437563
0.08855913102398623,1.4027194986936566,-4.545578412032271
0.08916988365173786,1.4031166696936364,-4.595636692380328
0.0897806362794895,1.4035162142672342,-4.645980577583452
0.09039138890724112,1.4039178456158652,-4.696614552200067
0.09100214153499275,1.4043212743096343,-4.747542630027347
0.09161289416274439,1.4047262091245167,-4.798768332537147
0.09222364679049602,1.4051323578764428,-4.85029466903337
0.09283439941824764,1.405539428249683,-4.902124118594407
0.09344515204599926,1.4059471286169374,-4.9542586138551945
0.0940559046737509,1.406355168848678,-5.006699526677165
0.09466665730150253,1.4067632611092926,-5.059447655746933
0.09527740992925417,1.4071711206377022,-5.11250321613764
0.09588816255700579,1.407578466510169,-5.165865830859789
0.09649891518475741,1.407985022383196,-5.219534524419615
0.09710966781250904,1.4083905172144349,-5.273507718397591
0.09772042044026068,1.40879468595964,-5.327783229052792
0.09833117306801231,1.409197270243859,-5.38235826694851
0.09894192569576393,1.4095980190051465,-5.4372294385919995
0.09955267832351557,1.4099966891091646,-5.492392750071053
0.10016343095126719,1.4103930459332263,-5.547843612664878
0.10077418357901882,1.4107868639183834,-5.603576850400631
0.10138493620677044,1.4111779270884002,-5.659586709518424
0.10199568883452208,1.411566029534408,-5.71586686980496
0.10260644146227371,1.411950975864349,-5.772410457747729
0.10321719409002535,1.4123325816163057,-5.829210061455878
0.10382794671777695,1.4127106736350208,-5.886257747290577
0.10443869934552859,1.4130850904109635,-5.943545078141184
0.10504945197328022,1.4134556823815636,-6.001063133278243
0.10566020460103186,1.4138223121941154,-6.058802529711867
0.10627095722878349,1.414184854930285,-6.116753444977389
0.10688170985653511,1.4145431982919614,-6.174905641268968
0.10749246248428675,1.4148972427485846,-6.233248490835793
0.10810321511203837,1.4152469016459863,-6.291771002553169
0.10871396773979,1.415592101276988,-6.350461849579983
0.10932472036754162,1.4159327809141384,-6.40930939800653
0.10993547299529326,1.4162688928050025,-6.468301736399481
0.11054622562304489,1.4166004021305056,-6.527426706146322
0.11115697825079653,1.416927286927079,-6.586671932499115
0.11176773087854816,1.417249537973206,-6.646024856217827
0.11237848350629977,1.4175671586413212,-6.705472765712437
0.1129892361340514,1.4178801647158668,-6.765002829580075
0.11359998876180304,1.418188584178532,-6.824602129436047
0.11421074138955467,1.4184924569617567,-6.884257692934342
0.11482149401730629,1.4187918346716148,-6.943956526876046
0.11543224664505793,1.4190867802812237,-7.003685650303864
0.11604299927280955,1.4193773677960797,-7.063432127478722
0.11665375190056118,1.41966368189246,-7.1231831006412865
0.1172645045283128,1.4199458175304465,-7.182925822456041
0.11787525715606444,1.4202238795428361,-7.242647688042313
0.11848600978381607,1.4204979822015062,-7.30233626649497
0.1190967624115677,1.4207682487627318,-7.361979331801131
0.11970751503931934,1.4210348109929454,-7.42156489306135
0.12031826766707095,1.4212978086765613,-7.481081223925823
0.12092902029482258,1.4215573891074462,-7.54051689116007
0.12153977292257422,1.4218137065656957,-7.599860782253558
0.12215052555032585,1.422066921781274,-7.659102131995855
0.12276127817807747,1.4223172013862853,-7.718230547938425
0.1233720308058291,1.4225647173574356,-7.777236034671159
0.12398278343358073,1.4228096464504654,-7.836109016843865
0.12459353606133236,1.4230521696281113,-7.894840360865662
0.125204288689084,1.4232924714833592,-7.9534213952222235
0.1258150413168356,1.4235307396596288,-8.01184392935061
0.12642579394458725,1.4237671642694976,-8.070100271023557
0.12703654657233887,1.424001937313691,-8.128183242187669
0.12764729920009052,1.4242352521018924,-8.186086193218568
0.12825805182784214,1.4244673026769905,-8.243803015548668
0.12886880445559376,1.424698283244371,-8.301328152636358
0.1294795570833454,1.424928387607765,-8.358656609245967
0.13009030971109703,1.4251578086131873,-8.415783959014405
0.13070106233884865,1.425386737602448,-8.472706350285637
0.13131181496660027,1.4256153638776528,-8.52942051019923
0.13192256759435192,1.425843874178154,-8.585923747023722
0.13253332022210354,1.4260724521711994,-8.642213950732957
0.1331440728498552,1.4263012779577249,-8.698289591824489
0.13375482547760678,1.4265305275944071,-8.754149718390735
0.13436557810535843,1.4267603726332665,-8.809793951453273
0.13497633073311005,1.4269909796799263,-8.865222478579122
0.1355870833608617,1.4272225099716254,-8.920436045801267
0.13619783598861332,1.4274551189759939,-8.975435947872416
0.13680858861636494,1.4276889560115205,-9.030224016887258
0.13741934124411656,1.4279241638906717,-9.08480260930751
0.13803009387186818,1.4281608785864068,-9.13917459143731
0.13864084649961983,1.4283992289228469,-9.193343323396352
0.13925159912737145,1.4286393362908327,-9.247312641643237
0.1398623517551231,1.4288813143888597,-9.301086840106102
0.14047310438287472,1.429125268990023,-9.354670649985769
0.14108385701062634,1.4293712977353101,-9.408069218294743
0.141694609638378,1.4296194899536987,-9.461288085202888
0.1423053622661296,1.429869926509259,-9.514333160267112
0.14291611489388123,1.430122679675515,-9.56721069761836
0.14352686752163288,1.4303778130371687,-9.619927270191896
0.1441376201493845,1.43063538141922,-9.672489743080552
0.14474837277713615,1.4308954308434103,-9.724905246104392
0.14535912540488774,1.4311579985119633,-9.777181145678577
0.14596987803263936,1.4314231128182608,-9.829325016079878
0.146580630660391,1.431690793384322,-9.881344610200658
0.14719138328814263,1.4319610511246021,-9.933247829887097
0.14780213591589428,1.4322338883357548,-9.985042695959956
0.1484128885436459,1.4325092988117583,-10.03673731801527
0.14902364117139752,1.4327872679838802,-10.088339864103508
0.14963439379914917,1.4330677730847614,-10.139858530386933
0.1502451464269008,1.433350783335925,-10.191301510873622
0.15085589905465244,1.4336362601578605,-10.242676967327245
0.15146665168240406,1.4339241574018515,-10.293992999450968
0.15207740431015568,1.434214421602611,-10.345257615441087
0.15268815693790733,1.4345069922507125,-10.396478703007796
0.15329890956565892,1.4348018020837914,-10.447664000955688
0.15390966219341054,1.4350987773954238,-10.498821071416153
0.1545204148211622,1.435397838360547,-10.549957272819668
0.1551311674489138,1.4356988993762145,-10.601079733698228
0.15574192007666546,1.4360018694164767,-10.652195327397353
0.15635267270441708,1.436306652400154,-10.703310647780006
0.1569634253321687,1.4366131475701625,-10.75443198599938
0.15757417795992035,1.436921249883129,-10.805565308413579
0.15818493058767197,1.4372308504079567,-10.856716235708046
0.15879568321542362,1.4375418367319395,-10.907890023296234
0.15940643584317524,1.4378540933731567,-10.959091543051084
0.16001718847092686,1.438167502197701,-11.010325266428278
0.1606279410986785,1.4384819428404143,-11.061595249028871
0.1612386937264301,1.4387972931277346,-11.11290511664773
0.16184944635418172,1.4391134295013563,-11.164258052844728
0.16246019898193337,1.4394302274412565,-11.215656788079478
0.163070951609685,1.4397475618868896,-11.267103590430876
0.16368170423743664,1.4400653076550993,-11.318600257933364
0.16429245686518826,1.4403833398535668,-11.370148112542168
0.16490320949293988,1.4407015342885192,-11.421747995742605
0.16551396212069153,1.4410197678654169,-11.47340026581121
0.16612471474844315,1.4413379189815207,-11.525104796729224
0.1667354673761948,1.4416558679091058,-11.57686097874538
0.16734622000394642,1.4419734971683047,-11.628667720576892
0.16795697263169804,1.4422906918884293,-11.680523453237903
0.16856772525944969,1.4426073401568618,-11.732426135469975
0.16917847788720128,1.442923333354454,-11.78437326075465
0.16978923051495293,1.443238566476629,-11.836361865874808
0.17039998314270455,1.4435529384392538,-11.888388540990155
0.17101073577045617,1.4438663523685777,-11.940449441189212
0.17162148839820782,1.4441787158744268,-11.992540299469796
0.17223224102595944,1.444489941306053,-12.044656441101777
0.17284299365371106,1.4447999459899632,-12.096792799321173
0.1734537462814627,1.4451086524493035,-12.148943932291036
0.17406449890921433,1.4454159886041655,-12.20110404127952
0.17467525153696598,1.445721887952538,-12.253266989980547
0.1752860041647176,1.4460262897314875,-12.305426324916914
0.17589675679246922,1.4463291390582904,-12.357575296852513
0.17650750942022086,1.4466303870513297,-12.409706883139433
0.17711826204797246,1.4469299909305904,-12.461813810925602
0.1777290146757241,1.4472279140976125,-12.513888581147711
0.17833976730347573,1.4475241261950107,-12.565923493220843
0.17895051993122735,1.4478186031454179,-12.617910670355089
0.179561272558979,1.4481113271701218,-12.669842085404085
0.18017202518673062,1.4484022867874442,-12.721709587168604
0.18078277781448224,1.4486914767911157,-12.773504927068517
0.18139353044223389,1.448978898208943,-12.825219786093783
0.1820042830699855,1.4492645582420483,-12.87684580195169
0.18261503569773715,1.4495484701851316,-12.92837459632111
0.18322578832548878,1.4498306533281327,-12.979797802129186
0.1838365409532404,1.4501111328398122,-13.031107090762376
0.18444729358099204,1.4503899396337887,-13.082294199127693
0.18505804620874364,1.4506671102175892,-13.133350956477392
0.18566879883649529,1.4509426865253592,-13.184269310917442
0.1862795514642469,1.451216715734885,-13.235041355511346
0.18689030409199853,1.4514892500696523,-13.285659353903448
0.18750105671975018,1.4517603465866358,-13.33611576538184
0.1881118093475018,1.4520300669506518,-13.386403269300555
0.18872256197525342,1.4522984771960326,-13.436514788790978
0.18933331460300507,1.4525656474764912,-13.486443513685712
0.18994406723075669,1.452831651803988,-13.53618292258846
0.19055481985850833,1.4530965677775658,-13.585726804018947
0.19116557248625995,1.4533604763029475,-13.635069276573262
0.19177632511401158,1.4536234613039194,-13.684204808036093
0.19238707774176322,1.4538856094263848,-13.733128233384482
0.19299783036951482,1.4541470097360356,-13.781834771635813
0.19360858299726647,1.454407753410643,-13.830320041482286
0.19421933562501809,1.4546679334278811,-13.878580075668921
0.1948300882527697,1.4549276442497259,-13.92661133406934
0.19544084088052135,1.455186981504307,-13.974410715425885
0.19605159350827298,1.4554460416663004,-14.021975567709752
0.19666234613602462,1.4557049217367615,-14.069303697077443
0.19727309876377624,1.455963718923372,-14.116393375395836
0.19788385139152787,1.456222530322075,-14.163243346311317
0.1984946040192795,1.4564814526010599,-14.209852829846016
0.19910535664703113,1.4567405816879826,-14.256221525509579
0.19971610927478275,1.4570000124614149,-14.30234961391309
0.20032686190253438,1.4572598384473288,-14.348237756886782
0.200937614530286,1.4575201515215914,-14.39388709609643
0.20154836715803764,1.4577810416192527,-14.439299250166156
0.20215911978578927,1.4580425964515282,-14.48447631031468
0.20276987241354089,1.4583049012312197,-14.529420834521204
0.20338062504129253,1.4585680384073636,-14.574135840238418
0.20399137766904415,1.4588320874099157,-14.618624795672792
0.2046021302967958,1.459097124405083,-14.662891609664177
0.20521288292454742,1.4593632220620618,-14.706940620191224
0.20582363555229904,1.459630449331764,-14.750776581543752
0.2064343881800507,1.4598988712381857,-14.794404650194661
0.2070451408078023,1.4601685486829288,-14.837830369423395
0.2076558934355539,1.460439538263424,-14.881059652733052
0.20826664606330555,1.460711892105311,-14.92409876611584
