frequency,refractiveIndex,absorption
0.0006107526277516292,0.9785897243605092,-0.05470010031319949
0.0012215052555032584,0.9803743722262752,-0.10924958672403791
0.0018322578832548875,0.9821756800222098,-0.16361866181099816
0.002443010511006517,0.983996565992059,-0.21777840296332554
0.003053763138758146,0.9858399117998548,-0.2717009753023036
0.003664515766509775,0.9877085565834945,-0.325359845502965
0.004275268394261404,0.9896052905560841,-0.37872999713101996
0.004886021022013034,0.9915328480354189,-0.4317881479679437
0.005496773649764663,0.9934938997856213,-0.48451296961151863
0.006107526277516292,0.9954910445604678,-0.5368853094072723
0.006718278905267922,0.9975267997460988,-0.5888884144827777
0.00732903153301955,0.9996035910121979,-0.6405081573194871
0.00793978416077118,1.0017237408963102,-0.6917332619023702
0.008550536788522809,1.0038894562666134,-0.7425555290354707
0.009161289416274438,1.00610281463482,-0.7929700589042893
0.009772042044026067,1.008365749323989,-0.8429754684083193
0.010382794671777697,1.010680033536405,-0.8925741001909929
0.010993547299529326,1.013047263414532,-0.9417722196735544
0.011604299927280955,1.0154688402434413,-0.9905801957826738
0.012215052555032585,1.0179459520054168,-1.0390126604722072
0.012825805182784214,1.0204795545649665,-1.087088641624279
0.013436557810535843,1.0230703528336027,-1.1348316635127433
0.014047310438287471,1.025718782334486,-1.1822698087801558
0.0146580630660391,1.028424991654249,-1.2294357358659065
0.015268815693790731,1.0311888263269884,-1.276366646086338
0.01587956832154236,1.034009814738931,-1.323104195145357
0.01649032094929399,1.036887156664813,-1.3696943447876861
0.017101073577045618,1.0398197150436976,-1.416187151595062
0.01771182620479725,1.0428060115675337,-1.4626364915652073
0.018322578832548876,1.0458442265873367,-1.5090997210493686
0.018933331460300507,1.0489322037386004,-1.5556372767801532
0.019544084088052135,1.0520674595514765,-1.602312219986044
0.020154836715803762,1.0552471981475156,-1.6491897318244282
0.020765589343555393,1.058468330941558,-1.6963365694255295
0.02137634197130702,1.06172750107571,-1.7438204935684738
0.021987094599058652,1.0650211121245692,-1.7917096802773145
0.02259784722681028,1.0683453604401165,-1.8400721293248186
0.02320859985456191,1.0716962703632027,-1.8889750827027485
0.023819352482313542,1.0750697314261484,-1.9384844655537388
0.02443010511006517,1.078461536614549,-1.9886643609039638
0.025040857737816797,1.081867420748284,-2.0395765278832636
0.025651610365568428,1.085283098080981,-2.0912799710961414
0.026262362993320056,1.0887042982981774,-2.143830566567012
0.026873115621071687,1.0921268002087836,-2.1972807473861886
0.027483868248823314,1.0955464625625289,-2.2516792499664127
0.028094620876574942,1.0989592515762587,-2.3070709198187545
0.028705373504326573,1.1023612649041383,-2.363496574053732
0.0293161261320782,1.1057487519316649,-2.420992916467128
0.029926878759829835,1.1091181304035258,-2.4795925001049968
0.030537631387581463,1.1124659995059,-2.539323731603309
0.03114838401533309,1.115789149611854,-2.6002109113390635
0.03175913664308472,1.1190845689634934,-2.6622743034541805
0.03236988927083635,1.1223494476072895,-2.7255302300724282
0.03298064189858798,1.1255811789217756,-2.7899911844558227
0.03359139452633961,1.1287773590824848,-2.855665958387166
0.034202147154091235,1.1319357848011273,-2.922559779665905
0.03481289978184286,1.1350544496573745,-2.990674456230417
0.0354236524095945,1.138131539316165,-3.0600085240248025
0.036034405037346125,1.1411654258931108,-3.1305573963060476
0.03664515766509775,1.1441546616984553,-3.202313512601923
0.03725591029284938,1.147097972557167,-3.2752664859937086
0.037866662920601014,1.149994250871345,-3.3494032477858684
0.038477415548352635,1.1528425485614209,-3.424708188955198
0.03908816817610427,1.1556420699957919,-3.501163298037785
0.039698920803855904,1.1583921649944777,-3.578748295322445
0.040309673431607525,1.1610923219716343,-3.6574407633787436
0.04092042605935916,1.163742161263844,-3.7372162740682766
0.04153117868711079,1.166341428676263,-3.8180485122650194
0.04214193131486242,1.1688899892662772,-3.8999093965669034
0.04275268394261404,1.171387821374609,-3.982769197303008
0.04336343657036568,1.173835010905756,-4.066596652152641
0.043974189198117304,1.176231745853843,-4.151359079685995
0.04458494182586893,1.1785783110653174,-4.237022491114898
0.04519569445362056,1.18087508322684,-4.323551700522431
0.045806447081372194,1.1831225260644471,-4.410910433805972
0.04641719970912382,1.185321185738857,-4.4990614365360315
0.04702795233687545,1.187471686421172,-4.587966580897945
0.047638704964627084,1.1895747260330605,-4.677586971848392
0.048249457592378704,1.191631072135907,-4.767883052583543
0.04886021022013034,1.1936415579540853,-4.858814709380975
0.049470962847881966,1.1956070785181825,-4.9503413758488595
0.050081715475633594,1.1975285869152585,-5.042422136581087
0.05069246810338522,1.1994070906340386,-5.135015830196853
0.051303220731136856,1.201243647994355,-5.228081151709231
0.05191397335888848,1.203039364651008,-5.321576754154873
0.05252472598664011,1.2047953901636834,-5.415461349387092
0.053135478614391746,1.2065129146253395,-5.509693807925648
0.05374623124214337,1.2081931653428462,-5.604233257733284
0.054356983869895,1.2098374035644313,-5.6990391817824655
0.05496773649764663,1.211446921249557,-5.7940715142591435
0.05557848912539826,1.2130230378776872,-5.88929073524438
0.056189241753149884,1.2145670972932463,-5.984657963704613
0.05679999438090152,1.2160804645847212,-6.0801350486165715
0.057410747008653146,1.2175645229967158,-6.175684658046455
0.05802149963640477,1.219020670874125,-6.271270366001611
0.0586322522641564,1.2204503186384401,-6.366856736867361
0.059243004891908035,1.2218548857964038,-6.462409407244735
0.05985375751965967,1.2232357979819655,-6.557895164998783
0.06046451014741129,1.2245944840326297,-6.653282025332885
0.061075262775162925,1.2259323731018195,-6.748539303702707
0.06168601540291455,1.2272508918091452,-6.843637685386213
0.06229676803066618,1.2285514614307054,-6.938549291528176
0.0629075206584178,1.229835495131868,-7.033247741481849
0.06351827328616944,1.2311043952451988,-7.127708211272526
0.06412902591392107,1.2323595505962865,-7.2219074880149945
0.0647397785416727,1.2336023338806203,-7.315824020116939
0.06535053116942433,1.234834099094604,-7.40943796311095
0.06596128379717596,1.2360561790241111,-7.502731220959065
0.0665720364249276,1.2372698827939625,-7.595687482685146
0.06718278905267921,1.2384764934820391,-7.6882922541909755
0.06779354168043085,1.239677265801596,-7.7805328851267435
0.06840429430818247,1.2408734238556787,-7.872398590689741
0.06901504693593409,1.242066158967439,-7.963880468236496
0.06962579956368573,1.2432566275903754,-8.054971508602836
0.07023655219143736,1.2444459493024875,-8.1456666020385
0.070847304819189,1.2456352048884314,-8.235962538671082
0.07145805744694061,1.2468254345137995,-8.32585800343143
0.07206881007469225,1.2480176359956672,-8.415353565381798
0.07267956270244387,1.2492127631735377,-8.504451661406005
0.0732903153301955,1.2504117243848827,-8.593156574233404
0.07390106795794714,1.2516153810493047,-8.681474404789194
0.07451182058569876,1.252824546365458,-8.769413038875552
0.0751225732134504,1.2540399841246488,-8.85698210821411
0.07573332584120203,1.2552624076449934,-8.944192945893422
0.07634407846895366,1.2564924788298368,-9.03105853629114
0.07695483109670527,1.257730807354043,-9.117593459558046
0.0775655837244569,1.258977949981386,-9.203813830778639
0.07817633635220854,1.260234410016284,-9.289737233940173
0.07878708897996017,1.2615006368925095,-9.37538265087378
0.07939784160771181,1.262777025901579,-9.460770385345285
0.08000859423546343,1.2640639180627284,-9.545921982511736
0.08061934686321505,1.2653616001364274,-9.63086014396815
0.08123009949096668,1.2666703047825372,-9.715608638649906
0.08184085211871832,1.2679902108641044,-9.80019220986584
0.08245160474646994,1.2693214438969633,-9.884636478773034
0.08306235737422157,1.2706640766450379,-9.968967844616802
0.08367311000197321,1.2720181298605142,-10.053213382088614
0.08428386262972484,1.273383573167476,-10.137400736170775
0.08489461525747646,1.2747603260870692,-10.221558014856896
0.08550536788522808,1.2761482592015472,-10.305713680153662
0.08611612051297972,1.277547195453948,-10.389896437784714
0.08672687314073135,1.2789569115795252,-10.474135126028237
0.08733762576848299,1.2803771396644144,-10.558458604134069
0.08794837839623461,1.2818075688263355,-10.642895640768073
0.08855913102398623,1.2832478470116526,-10.72747480294006
0.08916988365173786,1.284697582902347,-10.812224345873265
0.0897806362794895,1.2861563479260694,-10.897172104269409
0.09039138890724112,1.2876236783617618,-10.982345385423763
0.09100214153499275,1.2890990775329916,-11.067770864631942
0.09161289416274439,1.290582018080565,-11.153474483327546
0.09222364679049602,1.2920719443056998,-11.239481350368315
0.09283439941824764,1.293568274574655,-11.325815646881628
0.09344515204599926,1.2950704037754233,-11.412500535054146
0.0940559046737509,1.2965777058168724,-11.49955807123674
0.09466665730150253,1.2980895361606521,-11.58700912370644
0.09527740992925417,1.2996052343758953,-11.674873295408824
0.09588816255700579,1.3011241267069367,-11.76316885197119
0.09649891518475741,1.3026455286441,-11.851912655253926
0.09710966781250904,1.3041687474878403,-11.941120102674864
0.09772042044026068,1.3056930848966333,-12.030805072510933
0.09833117306801231,1.3072178394091387,-12.12097987535259
0.09894192569576393,1.3087423089315537,-12.211655211852213
0.09955267832351557,1.3102657931812915,-12.302840136876757
0.10016343095126719,1.3117875960785004,-12.394542030143334
0.10077418357901882,1.3133070280773882,-12.486766573383175
0.10138493620677044,1.3148234084296377,-12.579517734052498
0.10199568883452208,1.3163360673728097,-12.672797755572871
0.10260644146227371,1.3178443482370306,-12.766607154057374
0.10321719409002535,1.3193476094637986,-12.860944721452698
0.10382794671777695,1.3208452265313095,-12.95580753499408
0.10443869934552859,1.322336593781211,-13.051190972852053
0.10504945197328022,1.323821126142302,-13.147088735817766
0.10566020460103186,1.3252982607471817,-13.243492874858457
0.10627095722878349,1.3267674584384888,-13.340393824347931
0.10688170985653511,1.3282282051618786,-13.43778044076181
0.10749246248428675,1.329680013243479,-13.535640046605225
0.10810321511203837,1.3311224225499845,-13.633958479331485
0.10871396773979,1.3325550015302987,-13.732720144986862
0.10932472036754162,1.3339773481378472,-13.831908076315338
0.10993547299529326,1.335389090633456,-13.931503995033804
0.11054622562304489,1.3367898882689064,-14.031488377993261
0.11115697825079653,1.3381794318519604,-14.131840526918968
0.11176773087854816,1.3395574441938476,-14.232538641429388
0.11237848350629977,1.3409236804407538,-14.333559895022502
0.1129892361340514,1.3422779282911745,-14.43488051371513
0.11359998876180304,1.3436200081013518,-14.53647585702046
0.11421074138955467,1.344949772881283,-14.638320500950455
0.11482149401730629,1.3462671081842166,-14.740388322724119
0.11543224664505793,1.3475719318926158,-14.84265258687335
0.11604299927280955,1.3488641939040924,-14.945086032430103
0.11665375190056118,1.350143875720716,-15.04766096089327
0.1172645045283128,1.351410989945631,-15.150349324669557
0.11787525715606444,1.3526655796907863,-15.253122815692533
0.11848600978381607,1.353907717899996,-15.355952953929307
0.1190967624115677,1.3551375065915152,-15.458811175489526
0.11970751503931934,1.3563550760244563,-15.561668920062319
0.12031826766707095,1.3575605837935512,-15.66449771740994
0.12092902029482258,1.3587542138567483,-15.767269272659227
0.12153977292257422,1.3599361755002417,-15.869955550139089
0.12215052555032585,1.361106702245494,-15.972528855523931
0.12276127817807747,1.3622660507030262,-16.074961916045975
0.1233720308058291,1.3634144993775243,-16.177227958558962
0.12398278343358073,1.364552347428973,-16.279300785239073
0.12459353606133236,1.3656799133944904,-16.38115484672009
0.125204288689084,1.3667975338754526,-16.482765312473678
0.1258150413168356,1.367905562194527,-16.58410813825359
0.12642579394458725,1.369004367027153,-16.685160130434724
0.12703654657233887,1.3700943310119817,-16.785899007088695
0.12764729920009052,1.3711758493446917,-16.886303455649244
0.12825805182784214,1.3722493283595512,-16.9863531870308
0.12886880445559376,1.373315184103028,-17.086028986077967
0.1294795570833454,1.3743738409036392,-17.185312758230282
0.13009030971109703,1.3754257299421653,-17.28418757230253
0.13070106233884865,1.376471287826244,-17.38263769929012
0.13131181496660027,1.3775109551732747,-17.48064864712072
0.13192256759435192,1.378545175205477,-17.57820719128418
0.13253332022210354,1.3795743923607495,-17.67530140128715
0.1331440728498552,1.3805990509230301,-17.77192066288545
0.13375482547760678,1.3816195936755473,-17.868055696063703
0.13436557810535843,1.3826364605803865,-17.96369856874042
0.13497633073311005,1.383650087487613,-18.058842706186752
0.1355870833608617,1.3846609048770622,-18.153482896163357
0.13619783598861332,1.3856693366357826,-18.247615289785806
0.13680858861636494,1.386675798874023,-18.341237398144447
0.13741934124411656,1.3876806987824488,-18.434348084712735
0.13803009387186818,1.3886844335332493,-18.5269475535917
0.13864084649961983,1.3896873892274892,-18.619037333648162
0.13925159912737145,1.3906899398911392,-18.710620258615172
0.1398623517551231,1.3916924465218194,-18.801700443234715
0.14047310438287472,1.3926952561884045,-18.89228325553377
0.14108385701062634,1.3936987011852175,-18.98237528533565
0.141694609638378,1.394703098242678,-19.07198430911511
0.1423053622661296,1.3957087477958103,-19.161119251326063
0.14291611489388123,1.3967159333121384,-19.24979014232748
0.14352686752163288,1.397724920680096,-19.33800807305486
0.1441376201493845,1.3987359576590808,-19.425785146587348
0.14474837277713615,1.3997492733920351,-19.51313442677179
0.14535912540488774,1.400765077981283,-19.60006988407558
0.14596987803263936,1.4017835621281474,-19.686606338846275
0.146580630660391,1.4028048968367826,-19.772759402166272
0.14719138328814263,1.403829233182373,-19.85854541449619
0.14780213591589428,1.4048567021437368,-19.94398138231198
0.1484128885436459,1.405887414500177,-20.029084912942736
0.14902364117139752,1.4069214607922387,-20.113874147825136
0.14963439379914917,1.4079589113458368,-20.198367694395984
0.1502451464269008,1.4089998163590547,-20.282584556848928
0.15085589905465244,1.4100442060507676,-20.366544065982396
0.15146665168240406,1.4110920908699227,-20.450265808377598
0.15207740431015568,1.4121434617643585,-20.533769555136857
0.15268815693790733,1.4131982905076474,-20.617075190423932
0.15329890956565892,1.4142565300824146,-20.700202640043948
0.15390966219341054,1.415318115118379,-20.783171800301826
0.1545204148211622,1.4163829623831516,-20.86600246737823
0.1551311674489138,1.4174509713237804,-20.948714267459657
0.15574192007666546,1.4185220246567243,-21.03132658785698
0.15635267270441708,1.4195959890039602,-21.113858509343284
0.1569634253321687,1.4206727155726755,-21.196328739936998
0.15757417795992035,1.4217520408758924,-21.278755550353672
0.15818493058767197,1.4228337874912798,-21.36115671133887
0.15879568321542362,1.423917764855307,-21.443549433093928
0.15940643584317524,1.4250037700897222,-21.525950306991987
0.16001718847092686,1.4260915888573393,-21.608375249778103
0.1606279410986785,1.4271809962439954,-21.690839450435274
0.1612386937264301,1.4282717576634463,-21.77335731989034
0.16184944635418172,1.4293636297820058,-21.85594244371915
0.16246019898193337,1.4304563614596006,-21.938607538001637
0.163070951609685,1.4315496947039217,-22.021364408467207
0.16368170423743664,1.4326433656343767,-22.104223913052405
0.16429245686518826,1.4337371054524324,-22.187195927987243
0.16490320949293988,1.434830641415137,-22.27028931750439
0.16551396212069153,1.435923697808399,-22.353511907261115
0.16612471474844315,1.4370159969168506,-22.436870461542355
0.1667354673761948,1.4381072599870248,-22.52037066430212
0.16734622000394642,1.4391972081807354,-22.604017104084537
0.16795697263169804,1.4402855635155127,-22.68781326285644
0.16856772525944969,1.4413720497891724,-22.771761508758154
0.16917847788720128,1.4424563934855328,-22.855863092777632
0.16978923051495293,1.4435383246585518,-22.94011814932839
0.17039998314270455,1.4446175777921069,-23.02452570070311
0.17101073577045617,1.4456938926329475,-23.109083665360032
0.17162148839820782,1.4467670149942884,-23.193788869983212
0.17223224102595944,1.447836697527807,-23.278637065248546
0.17284299365371106,1.4489027004618522,-23.363622945210896
0.1734537462814627,1.4499647923038743,-23.448740170217846
0.17406449890921433,1.4510227505052078,-23.533981393243685
0.17467525153696598,1.4520763620865207,-23.6193382895239
0.1752860041647176,1.4531254242223957,-23.704801589362337
0.17589675679246922,1.4541697447836834,-23.790361113972192
0.17650750942022086,1.4552091428364067,-23.87600581420209
0.17711826204797246,1.4562434490962146,-23.96172381199166
0.1777290146757241,1.4572725063374845,-24.04750244438956
0.17833976730347573,1.4582961697564267,-24.133328309965034
0.17895051993122735,1.459314307287602,-24.21918731743271
0.179561272558979,1.4603267998735572,-24.30506473630526
0.18017202518673062,1.4613335416873339,-24.3909452493877
0.18078277781448224,1.4623344403078375,-24.47681300691727
0.18139353044223389,1.4633294168481683,-24.56265168215379
0.1820042830699855,1.464318406037226,-24.64844452821691
0.18261503569773715,1.4653013562549637,-24.73417443597546
0.18322578832548878,1.4662782295219194,-24.819823992775927
0.1838365409532404,1.467249001443676,-24.90537554181561
0.18444729358099204,1.4682136611111503,-24.990811241949867
0.18505804620874364,1.4691722109576464,-25.076113127733006
0.18566879883649529,1.470124666573787,-25.161263169491644
0.1862795514642469,1.4710710564815375,-25.246243333228513
0.18689030409199853,1.4720114218686473,-25.331035640160785
0.18750105671975018,1.4729458162849274,-25.41562222569958
0.1881118093475018,1.4738743053019,-25.499985397678174
0.18872256197525342,1.474796966137429,-25.58410769364586
0.18933331460300507,1.475713887247049,-25.667971937041973
0.18994406723075669,1.476625167883718,-25.751561292080982
0.19055481985850833,1.47753091762792,-25.83485931716865
0.19116557248625995,1.478431255889932,-25.917850016696427
0.19177632511401158,1.47932631138631,-26.0005178910471
0.19238707774176322,1.480216221592522,-26.082847984667264
0.19299783036951482,1.4811011321738456,-26.164825932061174
0.19360858299726647,1.4819811963965983,-26.246438001570237
0.19421933562501809,1.4828565745218096,-26.327671136811713
0.1948300882527697,1.4837274331834795,-26.40851299565747
0.19544084088052135,1.4845939447535978,-26.488951986640906
0.19605159350827298,1.4854562866960686,-26.568977302691188
0.19666234613602462,1.48631464091173,-26.64857895210017
0.19727309876377624,1.487169193076609,-26.727747786641466
0.19788385139152787,1.4880201319756041,-26.806475526761666
0.1984946040192795,1.4888676488337191,-26.884754783785148
0.19910535664703113,1.4897119366469778,-26.962579079069975
0.19971610927478275,1.490553189515121,-27.03994286007414
0.20032686190253438,1.491391601978161,-27.11684151329326
0.200937614530286,1.4922273683588263,-27.193271374043416
0.20154836715803764,1.493060682112864,-27.26922973307441
0.20215911978578927,1.4938917351892116,-27.344714840001227
0.20276987241354089,1.4947207174018697,-27.419725903564153
0.20338062504129253,1.4955478158153568,-27.494263088722573
0.20399137766904415,1.4963732141455202,-27.56832751061035
0.2046021302967958,1.4971970921774347,-27.641921225380514
0.20521288292454742,1.4980196252020446,-27.71504721798264
0.20582363555229904,1.4988409834731016,-27.787709386925
0.2064343881800507,1.4996613316859588,-27.859912526076
0.2070451408078023,1.500480828479619,-27.931662303580367
0.2076558934355539,1.5012996259634008,-28.002965237962187
0.20826664606330555,1.5021178692694608,-28.073828671506124
0.20887739869105718,1.502935696132402,-28.144260741006153
