frequency,refractiveIndex,absorption
0.0006107526277516292,1.1854797812555395,-0.0007178332857475128
0.0012215052555032584,1.1856027434237475,-0.002869902944250525
0.0018322578832548875,1.1858070598404098,-0.006451950212044303
0.002443010511006517,1.1860918125721263,-0.011456981739653652
0.003053763138758146,1.1864557415966732,-0.017875421285123642
0.003664515766509775,1.1868972684511585,-0.025695312145750302
0.004275268394261404,1.1874145247216825,-0.03490256136319779
0.004886021022013034,1.1880053841584814,-0.04548121542889893
0.005496773649764663,1.1886674971399156,-0.05741375663222233
0.006107526277516292,1.1893983262325731,-0.07068140930146784
0.006718278905267922,1.1901951816901815,-0.08526444589408513
0.00732903153301955,1.191055255884081,-0.10114248406120495
0.00793978416077118,1.1919756558423835,-0.1182947672877287
0.008550536788522809,1.1929534332749419,-0.13670042333949486
0.009161289416274438,1.193985611659537,-0.15633869639446552
0.009772042044026067,1.195069210148464,-0.17718915028880983
0.010382794671777697,1.196201264214831,-0.19923184169249716
0.010993547299529326,1.1973788430896728,-0.22244746319479217
0.011604299927280955,1.198599064142306,-0.2468174572131996
0.012215052555032585,1.1998591044290063,-0.27232410233845245
0.012825805182784214,1.2011562096816928,-0.29895057421431087
0.013436557810535843,1.2024877010324773,-0.3266809833510049
0.014047310438287471,1.2038509797766972,-0.35550039241658693
0.0146580630660391,1.2052435304700233,-0.38539481557490984
0.015268815693790731,1.2066629226386256,-0.4163512023719844
0.01587956832154236,1.2081068113587319,-0.448357408541358
0.01649032094929399,1.209572936935128,-0.48140215592763097
0.017101073577045618,1.2110591238807056,-0.5154749835309183
0.01771182620479725,1.2125632793711592,-0.5505661914709645
0.018322578832548876,1.214083391322674,-0.5866667794655517
0.018933331460300507,1.2156175262157098,-0.6237683812228166
0.019544084088052135,1.217163826765987,-0.6618631959640466
0.020154836715803762,1.218720509524117,-0.7009439181265191
0.020765589343555393,1.2202858624681197,-0.7410036661452984
0.02137634197130702,1.22185824263832,-0.7820359110800866
0.021987094599058652,1.223436073851999,-0.8240344057344794
0.02259784722681028,1.2250178445243682,-0.8669931148142878
0.02320859985456191,1.2266021056142498,-0.9109061465827181
0.023819352482313542,1.2281874687055925,-0.9557676863945492
0.02443010511006517,1.2297726042304986,-1.0015719324277073
0.025040857737816797,1.2313562398350035,-1.0483130338747513
0.025651610365568428,1.2329371588852733,-1.0959850318110196
0.026262362993320056,1.2345141991093491,-1.1445818029173431
0.026873115621071687,1.236086251367591,-1.1940970062008172
0.027483868248823314,1.2376522585435454,-1.2445240328303377
0.028094620876574942,1.2392112145459262,-1.2958559591794112
0.028705373504326573,1.2407621634119945,-1.3480855031485883
0.0293161261320782,1.242304198502052,-1.4012049838223968
0.029926878759829835,1.24383646177489,-1.4552062845020755
0.030537631387581463,1.2453581431339902,-1.510080819140678
0.03114838401533309,1.2468684798345164,-1.565819502198039
0.03175913664308472,1.2483667559414686,-1.6224127219214073
0.03236988927083635,1.2498523018297965,-1.6798503170496488
0.03298064189858798,1.2513244937175803,-1.738121556930494
0.03359139452633961,1.2527827532240439,-1.7972151250326687
0.034202147154091235,1.2542265469444467,-1.8571191058282273
0.03481289978184286,1.2556553860346642,-1.9178209750127801
0.0354236524095945,1.257068825798514,-1.9793075930259003
0.036034405037346125,1.2584664652715594,-2.0415652018275474
0.03664515766509775,1.2598479467956099,-2.104579424879608
0.03725591029284938,1.2612129555785128,-2.168335270276988
0.037866662920601014,1.26256121923448,-2.2328171369652425
0.038477415548352635,1.263892507300458,-2.29800882397784
0.03908816817610427,1.265206630724689,-2.363893542618706
0.039698920803855904,1.2665034413238796,-2.43045393151115
0.040309673431607525,1.2677828312059345,-2.497672074427929
0.04092042605935916,1.2690447321554974,-2.5655295208128295
0.04153117868711079,1.27028911498006,-2.634007308896846
0.04214193131486242,1.2715159888145464,-2.703085991309273
0.04275268394261404,1.2727254003829929,-2.772745663075503
0.04336343657036568,1.273917433215818,-2.842965991891837
0.043974189198117304,1.2750922068219346,-2.9137262505600288
0.04458494182586893,1.2762498758149752,-2.985005351460273
0.04519569445362056,1.277390628993302,-3.0567818829375275
0.045806447081372194,1.2785146883737781,-3.1290341474712826
0.04641719970912382,1.2796223081795342,-3.2017402014926084
0.04702795233687545,1.280713773782102,-3.2748778967139445
0.047638704964627084,1.281789400598768,-3.348424922826143
0.048249457592378704,1.2828495329459757,-3.4223588514209995
0.04886021022013034,1.283894542850012,-3.496657180988551
0.049470962847881966,1.2849248288163344,-3.5712973828407604
0.050081715475633594,1.2859408145591387,-3.6462569478058606
0.05069246810338522,1.2869429476928291,-3.721513433541097
0.051303220731136856,1.2879316983874864,-3.7970445123037018
0.05191397335888848,1.2889075579902916,-3.8728280190243844
0.05252472598664011,1.289871037615218,-3.948841999522513
0.053135478614391746,1.2908226667033975,-4.02506475870341
0.05374623124214337,1.2917629915566489,-4.101474908577609
0.054356983869895,1.2926925738469095,-4.178051415941728
0.05496773649764663,1.2936119891042157,-4.254773649561327
0.05557848912539826,1.2945218251862116,-4.331621426697294
0.056189241753149884,1.2954226807321365,-4.408575058817928
0.05679999438090152,1.2963151636042638,-4.485615396341757
0.057410747008653146,1.2971998893200782,-4.562723872255509
0.05802149963640477,1.2980774794782566,-4.639882544459271
0.0586322522641564,1.2989485601817898,-4.717074136686912
0.059243004891908035,1.2998137604615514,-4.7942820778603945
0.05985375751965967,1.3006737107036745,-4.87149053973333
0.06046451014741129,1.3015290410841018,-4.948684472690415
0.061075262775162925,1.3023803800137972,-5.025849639566862
0.06168601540291455,1.303228352598016,-5.102972647362565
0.06229676803066618,1.3040735791130933,-5.180040976728408
0.0629075206584178,1.3049166735042037,-5.2570430091084654
0.06351827328616944,1.3057582419075875,-5.333968051427718
0.06412902591392107,1.306598881200606,-5.4108063582234465
0.0647397785416727,1.3074391775831025,-5.487549151122452
0.06535053116942433,1.308279705193411,-5.564188635577301
0.06596128379717596,1.309121024762377,-5.640718014779599
0.0665720364249276,1.3099636823086291,-5.71713150067938
0.06718278905267921,1.3108082078784136,-5.793424322045882
0.06779354168043085,1.3116551143330188,-5.8695927295173185
0.06840429430818247,1.312504896187002,-5.945633997592536
0.06901504693593409,1.3133580285000839,-6.021546423532224
0.06962579956368573,1.3142149658256423,-6.09732932314327
0.07023655219143736,1.31507614121853,-6.172983023434017
0.070847304819189,1.3159419653049127,-6.24850885213464
0.07145805744694061,1.3168128254165414,-6.323909124094082
0.07206881007469225,1.317689084791844,-6.399187124569826
0.07267956270244387,1.3185710818460408,-6.474347089442129
0.0732903153301955,1.3194591295122344,-6.5493941823957815
0.07390106795794714,1.3203535146553775,-6.624334469123126
0.07451182058569876,1.321254497560651,-6.699174888611672
0.0751225732134504,1.3221623114977743,-6.773923221597855
0.07573332584120203,1.323077162362383,-6.848588056272064
0.07634407846895366,1.3239992283954762,-6.923178751336963
0.07695483109670527,1.3249286599816477,-6.997705396530929
0.0775655837244569,1.325865579526666,-7.0721787707372235
0.07817633635220854,1.3268100814145547,-7.146610297813973
0.07878708897996017,1.327762232044218,-7.221012000286366
0.07939784160771181,1.328722069945324,-7.2953964510547396
0.08000859423546343,1.3296896059728713,-7.369776723279594
0.08061934686321505,1.3306648235796457,-7.444166338614706
0.08123009949096668,1.331647679165514,-7.518579213964162
0.08184085211871832,1.3326381025020853,-7.593029606951718
0.08245160474646994,1.333635997231281,-7.667532060289714
0.08306235737422157,1.334641241435758,-7.742101345247037
0.08367311000197321,1.335653688279153,-7.816752404416145
0.08428386262972484,1.3366731667137153,-7.891500293982286
0.08489461525747646,1.3376994822526598,-7.966360125704722
0.08550536788522808,1.3387324178044133,-8.041347008815977
0.08611612051297972,1.3397717345656346,-8.11647599205025
0.08672687314073135,1.3408171729696994,-8.191762006008004
0.08733762576848299,1.3418684536872107,-8.267219806066574
0.08794837839623461,1.3429252786747732,-8.342863916038821
0.08855913102398623,1.3439873322683162,-8.41870857278434
0.08916988365173786,1.3450542823169223,-8.494767671966963
0.0897806362794895,1.3461257813530678,-8.57105471515484
0.09039138890724112,1.347201467795158,-8.64758275844376
0.09100214153499275,1.3482809671779796,-8.724364362786618
0.09161289416274439,1.349363893406805,-8.801411546197741
0.09222364679049602,1.350449850030746,-8.87873573799386
0.09283439941824764,1.3515384315309638,-8.956347735226306
0.09344515204599926,1.3526292246193015,-9.03425766144627
0.0940559046737509,1.3537218095429862,-9.112474927936683
0.09466665730150253,1.35481576139105,-9.191008197531874
0.09527740992925417,1.3559106513981933,-9.269865351135206
0.09588816255700579,1.3570060482418145,-9.349053457035543
0.09649891518475741,1.358101519328186,-9.428578743106698
0.09710966781250904,1.3591966320636562,-9.508446571967434
0.09772042044026068,1.3602909551071094,-9.588661419162186
0.09833117306801231,1.3613840595997793,-9.669226854416502
0.09894192569576393,1.3624755203690053,-9.7501455260003
0.09955267832351557,1.3635649171023214,-9.831419148230676
0.10016343095126719,1.3646518354887083,-9.91304849212414
0.10077418357901882,1.3657358683239476,-9.995033379202045
0.10138493620677044,1.3668166165771019,-10.077372678439753
0.10199568883452208,1.3678936904155163,-10.160064306339077
0.10260644146227371,1.3689667101857959,-10.243105230091214
0.10321719409002535,1.3700353073485143,-10.326491473789122
0.10382794671777695,1.3710991253645355,-10.41021812763635
0.10443869934552859,1.3721578205311413,-10.494279360089696
0.10504945197328022,1.373211062766285,-10.578668432865644
0.10566020460103186,1.374258536339507,-10.66337771872823
0.10627095722878349,1.3752999405483661,-10.748398721970778
0.10688170985653511,1.3763349903392799,-10.8337221014973
0.10749246248428675,1.3773634168720184,-10.919337696395099
0.10810321511203837,1.378384968027225,-11.00523455389415
0.10871396773979,1.3793994088565722,-11.09140095959153
0.10932472036754162,1.3804065219752641,-11.17782446982458
0.10993547299529326,1.3814061078969717,-11.264491946060256
0.11054622562304489,1.3823979853112318,-11.351389591173687
0.11115697825079653,1.383381991303718,-11.438502987478236
0.11176773087854816,1.3843579815198148,-11.525817136369517
0.11237848350629977,1.3853258302722076,-11.61331649944093
0.1129892361340514,1.3862854305932402,-11.700985040927645
0.11359998876180304,1.3872366942330159,-11.788806271332428
0.11421074138955467,1.3881795516043463,-11.876763292086697
0.11482149401730629,1.3891139516757318,-11.96483884109852
0.11543224664505793,1.3900398618137262,-12.053015339040218
0.11604299927280955,1.3909572675761865,-12.141274936224395
0.11665375190056118,1.391866172457897,-12.229599559923122
0.1172645045283128,1.392766597590278,-12.31797096198301
0.11787525715606444,1.3936585813968994,-12.406370766588461
0.11848600978381607,1.3945421792066834,-12.49478051803048
0.1190967624115677,1.3954174628266307,-12.583181728338849
0.11970751503931934,1.3962845200761278,-12.671555924637
0.12031826766707095,1.3971434542847794,-12.759884696083864
0.12092902029482258,1.3979943837559612,-12.848149740267713
0.12153977292257422,1.398837441198155,-12.936332908920003
0.12215052555032585,1.3996727731262368,-13.024416252827365
0.12276127817807747,1.4005005392350227,-13.112382065809513
0.1233720308058291,1.4013209117471366,-13.200212927654091
0.12398278343358073,1.4021340747376534,-13.287891745886197
0.12459353606133236,1.4029402234376347,-13.37540179626478
0.125204288689084,1.4037395635188767,-13.462726761902829
0.1258150413168356,1.4045323103622107,-13.549850770906795
0.12642579394458725,1.4053186883115392,-13.636758432443536
0.12703654657233887,1.4060989299159197,-13.723434871143331
0.12764729920009052,1.406873275161986,-13.809865759754526
0.12825805182784214,1.4076419706988639,-13.896037349971712
0.12886880445559376,1.4084052690578908,-13.981936501363245
0.1294795570833454,1.4091634278692218,-14.067550708333542
0.13009030971109703,1.4099167090775964,-14.152868125055358
0.13070106233884865,1.4106653781592806,-14.237877588320115
0.13131181496660027,1.4114097033423267,-14.322568638255929
0.13192256759435192,1.412149954832191,-14.406931536870733
0.13253332022210354,1.4128864040446598,-14.490957284384397
0.1331440728498552,1.4136193228480824,-14.574637633319464
0.13375482547760678,1.4143489828167448,-14.6579651003269
0.13436557810535843,1.4150756544972571,-14.740932975730074
0.13497633073311005,1.4157996066897014,-14.823535330774869
0.1355870833608617,1.416521105745276,-14.905767022582655
0.13619783598861332,1.4172404148820412,-14.987623696807024
0.13680858861636494,1.4179577935203964,-15.069101788002941
0.13741934124411656,1.4186734966397208,-15.150198517724125
0.13803009387186818,1.4193877741576852,-15.230911890365892
0.13864084649961983,1.4201008703335418,-15.311240686785688
0.13925159912737145,1.420813023196693,-15.391184455729963
0.1398623517551231,1.4215244640017017,-15.470743503109578
0.14047310438287472,1.4222354167109261,-15.549918879167926
0.14108385701062634,1.4229460975057222,-15.62871236359308
0.141694609638378,1.4236567143272534,-15.707126448630328
0.1423053622661296,1.4243674664476809,-15.785164320258874
0.14291611489388123,1.4250785440725575,-15.862829837499135
0.14352686752163288,1.425790127975094,-15.940127509924746
0.1441376201493845,1.4265023891628796,-16.017062473455482
0.14474837277713615,1.427215488577526,-16.093640464517982
0.14535912540488774,1.4279295768277123,-16.16986779265664
0.14596987803263936,1.4286447939558484,-16.245751311690547
0.146580630660391,1.4293612692386288,-16.321298389511586
0.14719138328814263,1.4300791210215962,-16.39651687662131
0.14780213591589428,1.430798456587688,-16.47141507351414
0.1484128885436459,1.4315193720597679,-16.54600169700931
0.14902364117139752,1.4322419523369385,-16.620285845642545
0.14963439379914917,1.432966271064348,-16.694276964233072
0.1502451464269008,1.4336923906362236,-16.767984807733402
0.15085589905465244,1.4344203622316332,-16.841419404484444
0.15146665168240406,1.4351502258824287,-16.914591018991118
0.15207740431015568,1.4358820105728265,-16.98751011433733
0.15268815693790733,1.4366157343698551,-17.06018731436032
0.15329890956565892,1.437351404583898,-17.132633365705715
0.15390966219341054,1.438089017958509,-17.204859099880725
0.1545204148211622,1.4388285608884634,-17.27687539542909
0.1551311674489138,1.4395700096651507,-17.348693140341947
0.15574192007666546,1.4403133307480815,-17.42032319482685
0.15635267270441708,1.4410584810614397,-17.49177635454861
0.1569634253321687,1.4418054083144387,-17.563063314455153
0.15757417795992035,1.442554051344181,-17.634194633303323
0.15818493058767197,1.443304340479676,-17.705180698989967
0.15879568321542362,1.4440561979256585,-17.77603169479718
0.15940643584317524,1.4448095381647457,-17.84675756665123
0.16001718847092686,1.4455642683764587,-17.91736799149525
0.1606279410986785,1.4463202888715994,-17.987872346869654
0.1612386937264301,1.4470774935404371,-18.058279681789756
0.16184944635418172,1.4478357703131333,-18.12859868900482
0.16246019898193337,1.4485950016308002,-18.198837678720075
0.163070951609685,1.449355064925621,-18.269004553853065
0.16368170423743664,1.4501158331083766,-18.339106786896995
0.16429245686518826,1.450877175061782,-18.409151398450025
0.16490320949293988,1.4516389561380008,-18.47914493747191
0.16551396212069153,1.452401038658767,-18.549093463312175
0.16612471474844315,1.4531632824164167,-18.619002529563662
0.1667354673761948,1.4539255451743882,-18.688877169769018
0.16734622000394642,1.454687683165501,-18.758721885020023
0.16795697263169804,1.455449551586554,-18.82854063346989
0.16856772525944969,1.4562110050877322,-18.898336821778173
0.16917847788720128,1.4569718982553495,-18.968113298499684
0.16978923051495293,1.4577320860865033,-19.037872349423363
0.17039998314270455,1.4584914244542782,-19.10761569485688
0.17101073577045617,1.459249770562177,-19.177344488851375
0.17162148839820782,1.4600069833864826,-19.24705932035131
0.17223224102595944,1.4607629241053661,-19.316760216245964
0.17284299365371106,1.4615174565135571,-19.386446646299316
0.1734537462814627,1.4622704474215407,-19.45611752992023
0.17406449890921433,1.4630217670381604,-19.525771244740067
0.17467525153696598,1.4637712893357708,-19.595405636946744
0.1752860041647176,1.464518892396998,-19.665018033328575
0.17589675679246922,1.4652644587423036,-19.73460525497238
0.17650750942022086,1.4660078756376216,-19.804163632553095
0.17711826204797246,1.466749035381394,-19.87368902315321
0.1777290146757241,1.4674878355704213,-19.94317682853884
0.17833976730347573,1.4682241793440118,-20.01262201482189
0.17895051993122735,1.4689579756060152,-20.082019133427796
0.179561272558979,1.4696891392243265,-20.151362343291282
0.18017202518673062,1.4704175912076718,-20.220645434190097
0.18078277781448224,1.4711432588593505,-20.28986185113745
0.18139353044223389,1.4718660759079394,-20.35900471973507
0.1820042830699855,1.4725859826147807,-20.42806687239932
0.18261503569773715,1.4733029258583625,-20.49704087536613
0.18322578832548878,1.4740168591956329,-20.565919056376202
0.1838365409532404,1.474727742900426,-20.634693532947708
0.18444729358099204,1.4754355439792515,-20.703356241132077
0.18505804620874364,1.476140236164703,-20.771898964661844
0.18566879883649529,1.476841799886871,-20.840313364385633
0.1862795514642469,1.4775402222232152,-20.908591007892444
0.18689030409199853,1.478235496827317,-20.976723399229314
0.18750105671975018,1.4789276238371212,-21.04470200860967
0.1881118093475018,1.4796166097632162,-21.112518302019218
0.18872256197525342,1.4803024673578389,-21.180163770621498
0.18933331460300507,1.4809852154652723,-21.24762995986731
0.18994406723075669,1.4816648788544262,-21.314908498217026
0.19055481985850833,1.4823414880343253,-21.381991125385486
0.19116557248625995,1.4830150790534191,-21.448869720017328
0.19177632511401158,1.4836856932835027,-21.51553632671188
0.19238707774176322,1.4843533771891948,-21.58198318230905
0.19299783036951482,1.4850181820838986,-21.64820274136035
0.19360858299726647,1.4856801638732016,-21.714187700705065
0.19421933562501809,1.4863393827867004,-21.779931023078202
0.1948300882527697,1.4869959030992603,-21.84542595968174
0.19544084088052135,1.4876497928427104,-21.91066607165237
0.19605159350827298,1.4883011235090786,-21.9756452503592
0.19666234613602462,1.4889499697463349,-22.040357736480427
0.19727309876377624,1.489596409047754,-22.10479813779864
0.19788385139152787,1.4902405214359606,-22.168961445667364
0.1984946040192795,1.4908823891427005,-22.23284305010471
0.19910535664703113,1.4915220962854292,-22.296438753470397
0.19971610927478275,1.4921597285417698,-22.35974478269318
0.20032686190253438,1.4927953728228838,-22.422757800015443
0.200937614530286,1.4934291169468459,-22.48547491222947
0.20154836715803764,1.4940610493129842,-22.54789367838342
0.20215911978578927,1.4946912585782912,-22.610012115940854
0.20276987241354089,1.4953198333368274,-22.67182870538101
0.20338062504129253,1.4959468618031497,-22.73334239323423
0.20399137766904415,1.4965724315007012,-22.794552593550442
0.2046021302967958,1.4971966289560925,-22.855459187804104
0.20521288292454742,1.4978195394001907,-22.91606252324104
0.20582363555229904,1.4984412464768702,-22.97636340968642
0.2064343881800507,1.49906183196028,-23.036363114822457
0.2070451408078023,1.4996813754814264,-23.096063357968074
0.2076558934355539,1.5002999542648365,-23.15546630237989
0.20826664606330555,1.500917642876051,-23.214574546110317
0.20887739869105718,1.5015345129805922,-23.273391111458494
