frequency,refractiveIndex,absorption
0.0006107526277516292,1.190379746416579,-0.013760871585724862
0.0012215052555032584,1.2170882882003564,-0.0459260181900651
0.0018322578832548875,1.244302532135152,-0.08689879229861937
0.002443010511006517,1.269728295217893,-0.13213314666446668
0.003053763138758146,1.293080995482773,-0.17910592426960698
0.003664515766509775,1.3144412663271974,-0.2262089058975812
0.004275268394261404,1.333953138110329,-0.27235880720022243
0.004886021022013034,1.3517632502090255,-0.31682055436759815
0.005496773649764663,1.3680096328055678,-0.35910857814566
0.006107526277516292,1.382821031117475,-0.3989225181728929
0.006718278905267922,1.396317937565946,-0.4361008575049848
0.00732903153301955,1.4086134219508302,-0.4705854977178253
0.00793978416077118,1.4198135350956478,-0.5023939794038145
0.008550536788522809,1.4300174289190422,-0.5315975746852725
0.009161289416274438,1.439317361586203,-0.5583041237585902
0.009772042044026067,1.4477987053761792,-0.5826447734455651
0.010382794671777697,1.4555400205138669,-0.6047639201366556
0.010993547299529326,1.4626132180390468,-0.6248117537357455
0.011604299927280955,1.4690838098402548,-0.6429388786069358
0.012215052555032585,1.4750112308996157,-0.6592925629419416
0.012825805182784214,1.4804492137215497,-0.6740142405102071
0.013436557810535843,1.4854461946799409,-0.6872379565145196
0.014047310438287471,1.4900457343377287,-0.6990895101908587
0.0146580630660391,1.494286937181335,-0.7096860996049553
0.015268815693790731,1.4982048597792805,-0.7191363184659938
0.01587956832154236,1.5018308996427796,-0.727540391066122
0.01649032094929399,1.5051931598245238,-0.734990560466743
0.017101073577045618,1.5083167864872074,-0.7415715677989596
0.01771182620479725,1.5112242783375047,-0.7473611780765677
0.018322578832548876,1.5139357680263328,-0.7524307212240272
0.018933331460300507,1.516469276445952,-0.7568456269731908
0.019544084088052135,1.5188409413906307,-0.760665939620532
0.020154836715803762,1.5210652223616659,-0.7639468039702605
0.020765589343555393,1.5231550834495435,-0.7667389176019054
0.02137634197130702,1.525122156263387,-0.7690889472783776
0.021987094599058652,1.5269768848373684,-0.7710399091457583
0.02259784722681028,1.5287286543531942,-0.7726315135965097
0.02320859985456191,1.5303859053972562,-0.77390047644318
0.023819352482313542,1.531956235335128,-0.7748807985079661
0.02443010511006517,1.5334464882448295,-0.7756040159690789
0.025040857737816797,1.5348628347104436,-0.776099423887306
0.025651610365568428,1.536210842643591,-0.7763942753159957
0.026262362993320056,1.5374955401745911,-0.7765139583108341
0.026873115621071687,1.5387214715392106,-0.7764821530289371
0.027483868248823314,1.53989274678128,-0.7763209709573479
0.028094620876574942,1.541013085996118,-0.7760510781522122
0.028705373504326573,1.5420858587542583,-0.7756918042092298
0.0293161261320782,1.5431141192688476,-0.7752612385306494
0.029926878759829835,1.5441006378024926,-0.774776315305058
0.030537631387581463,1.5450479287496308,-0.7742528884784695
0.03114838401533309,1.5459582757777786,-0.7737057978666539
0.03175913664308472,1.546833754364656,-0.7731489274421572
0.03236988927083635,1.5476762520274334,-0.772595256722669
0.03298064189858798,1.5484874865045635,-0.772056906091913
0.03359139452633961,1.5492690221192906,-0.7715451767975294
0.034202147154091235,1.5500222845264031,-0.7710705862924789
0.03481289978184286,1.5507485740196871,-0.7706428995176346
0.0354236524095945,1.5514490775564067,-0.7702711566604021
0.036034405037346125,1.5521248796365885,-0.7699636978688261
0.03664515766509775,1.552776972158662,-0.7697281853507169
0.03725591029284938,1.553406263358743,-0.7695716232429932
0.037866662920601014,1.554013585928366,-0.7695003755961277
0.038477415548352635,1.5545997043944577,-0.769520182783134
0.03908816817610427,1.555165321835752,-0.7696361766101915
0.039698920803855904,1.5557110860013383,-0.7698528943770354
0.040309673431607525,1.5562375948895975,-0.7701742921091207
0.04092042605935916,1.5567454018392277,-0.7706037571598794
0.04153117868711079,1.557235020178296,-0.7711441203599894
0.04214193131486242,1.5577069274721451,-0.7717976678710498
0.04275268394261404,1.5581615694065403,-0.772566152882945
0.04336343657036568,1.5585993633384607,-0.7734508072785186
0.043974189198117304,1.559020701543469,-0.7744523533734851
0.04458494182586893,1.5594259541855104,-0.7755710158261735
0.04519569445362056,1.5598154720322757,-0.7768065337989175
0.045806447081372194,1.560189588936875,-0.7781581734407798
0.04641719970912382,1.5605486241044222,-0.7796247407511623
0.04702795233687545,1.5608928841602838,-0.7812045948727752
0.047638704964627084,1.5612226650350673,-0.7828956618536462
0.048249457592378704,1.5615382536799778,-0.7846954489088324
0.04886021022013034,1.5618399296248489,-0.7866010592044401
0.049470962847881966,1.5621279663900427,-0.78860920717858
0.050081715475633594,1.5624026327623632,-0.7907162344071397
0.05069246810338522,1.5626641939442605,-0.7929181260155825
0.051303220731136856,1.5629129125847843,-0.795210527631405
0.05191397335888848,1.563149049700065,-0.7975887628667009
0.05252472598664011,1.5633728654904644,-0.8000478513146003
0.053135478614391746,1.5635846200609826,-0.8025825270385705
0.05374623124214337,1.563784574051043,-0.8051872575291548
0.054356983869895,1.5639729891793175,-0.8078562630982873
0.05496773649764663,1.5641501287088881,-0.8105835366780015
0.05557848912539826,1.564316257837695,-0.8133628639866325
0.056189241753149884,1.5644716440189141,-0.8161878440225528
0.05679999438090152,1.5646165572156492,-0.8190519098432634
0.057410747008653146,1.5647512700940607,-0.8219483495843566
0.05802149963640477,1.564876058158868,-0.8248703276720186
0.0586322522641564,1.5649911998349355,-0.8278109061799457
0.059243004891908035,1.5650969764985057,-0.8307630662807736
0.05985375751965967,1.565193672461467,-0.8337197297407742
0.06046451014741129,1.5652815749119022,-0.8366737804057053
0.061075262775162925,1.5653609738140435,-0.8396180856252417
0.06168601540291455,1.5654321617706233,-0.8425455175630168
0.06229676803066618,1.5654954338505067,-0.845448974339351
0.0629075206584178,1.5655510873843885,-0.8483214009537984
0.06351827328616944,1.5655994217312277,-0.8511558099351768
0.06412902591392107,1.5656407380180246,-0.8539453016674242
0.0647397785416727,1.565675338855415,-0.8566830843402308
0.06535053116942433,1.5657035280315263,-0.8593624934746663
0.06596128379717596,1.5657256101864119,-0.8619770109751141
0.0665720364249276,1.5657418904693237,-0.8645202836602648
0.06718278905267921,1.5657526741810075,-0.8669861412271759
0.06779354168043085,1.5657582664031249,-0.8693686136045611
0.06840429430818247,1.5657589716168308,-0.8716619476527915
0.06901504693593409,1.5657550933124715,-0.8738606231700918
0.06962579956368573,1.5657469335922896,-0.8759593681666398
0.07023655219143736,1.565734792767961,-0.8779531733702923
0.070847304819189,1.5657189689547113,-0.8798373059293441
0.07145805744694061,1.5656997576636933,-0.8816073222809483
0.07206881007469225,1.5656774513942462,-0.8832590801551783
0.07267956270244387,1.5656523392275816,-0.8847887496875216
0.0732903153301955,1.5656247064233804,-0.8861928236152689
0.07390106795794714,1.5655948340207153,-0.8874681265348235
0.07451182058569876,1.5655629984446573,-0.8886118232005118
0.0751225732134504,1.5655294711198464,-0.8896214258471237
0.07573332584120203,1.565494518092262,-0.8904948005212945
0.07634407846895366,1.565458399660343,-0.8912301724095048
0.07695483109670527,1.5654213700165729,-0.891826130152267
0.0775655837244569,1.5653836769005547,-0.8922816291379272
0.07817633635220854,1.5653455612645717,-0.8925959937702853
0.07878708897996017,1.5653072569525404,-0.8927689187085861
0.07939784160771181,1.565268990393228,-0.8928004690793221
0.08000859423546343,1.565230980308533,-0.8926910796630426
0.08061934686321505,1.565193437437581,-0.8924415530609366
0.08123009949096668,1.565156564277325,-0.8920530568490181
0.08184085211871832,1.5651205548402878,-0.8915271197299017
0.08245160474646994,1.5650855944300308,-0.890865626694618
0.08306235737422157,1.5650518594348735,-0.8900708132093352
0.08367311000197321,1.565019517140345,-0.8891452584442383
0.08428386262972484,1.5649887255607844,-0.8880918775641343
0.08489461525747646,1.5649596332904705,-0.8869139131027132
0.08550536788522808,1.5649323793745915,-0.8856149254444668
0.08611612051297972,1.5649070932003295,-0.8841987824409815
0.08672687314073135,1.5648838944082815,-0.8826696481897794
0.08733762576848299,1.5648628928243815,-0.8810319710068049
0.08794837839623461,1.5648441884124449,-0.8792904706253785
0.08855913102398623,1.5648278712474097,-0.877450124656184
0.08916988365173786,1.5648140215092932,-0.8755161543457396
0.0897806362794895,1.564802709497837,-0.873494009671693
0.09039138890724112,1.5647939956677703,-0.8713893538160703
0.09100214153499275,1.5647879306845631,-0.8692080470586573
0.09161289416274439,1.5647845555005013,-0.8669561301349609
0.09222364679049602,1.5647839014508664,-0.8646398071046091
0.09283439941824764,1.5647859903699524,-0.8622654277774275
0.09344515204599926,1.5647908347266068,-0.8598394697461831
0.0940559046737509,1.5647984377789397,-0.8573685200763621
0.09466665730150253,1.5648087937477904,-0.8548592567039311
0.09527740992925417,1.5648218880085067,-0.852318429594071
0.09588816255700579,1.5648376973005333,-0.8497528417141187
0.09649891518475741,1.564856189954274,-0.8471693298751725
0.09710966781250904,1.5648773261346391,-0.8445747454973663
0.09772042044026068,1.5649010581006553,-0.8419759353543439
0.09833117306801231,1.5649273304804603,-0.8393797223530205
0.09894192569576393,1.56495608056098,-0.8367928864047071
0.09955267832351557,1.5649872385915347,-0.8342221454440568
0.10016343095126719,1.5650207281005837,-0.8316741366516756
0.10077418357901882,1.5650564662247923,-0.8291553979365032
0.10138493620677044,1.5650943640495532,-0.8266723497332704
0.10199568883452208,1.5651343269600766,-0.8242312771695346
0.10260644146227371,1.5651762550021255,-0.8218383126564357
0.10321719409002535,1.565220043251445,-0.8194994189555571
0.10382794671777695,1.5652655821909114,-0.8172203727737942
0.10443869934552859,1.5653127580944008,-0.8150067489360038
0.10504945197328022,1.5653614534163578,-0.8128639051839901
0.10566020460103186,1.5654115471860268,-0.8107969676485024
0.10627095722878349,1.5654629154052964,-0.8088108170387082
0.10688170985653511,1.5655154314490929,-0.8069100755915452
0.10749246248428675,1.565568966467254,-0.8050990948212945
0.10810321511203837,1.5656233897868064,-0.803381944106388
0.10871396773979,1.565678569313573,-0.8017624001486378
0.10932472036754162,1.56573437193204,-0.8002439373367863
0.10993547299529326,1.5657906639024117,-0.7988297190432206
0.11054622562304489,1.565847311253803,-0.7975225898798441
0.11115697825079653,1.5659041801725253,-0.7963250689357642
0.11176773087854816,1.5659611373844406,-0.7952393440159061
0.11237848350629977,1.5660180505303802,-0.7942672668969275
0.1129892361340514,1.5660747885336546,-0.7934103496121152
0.11359998876180304,1.5661312219586958,-0.7926697617748697
0.11421074138955467,1.5661872233599214,-0.7920463289455665
0.11482149401730629,1.5662426676199344,-0.7915405320436433
0.11543224664505793,1.5662974322762118,-0.7911525078029612
0.11604299927280955,1.5663513978354824,-0.7908820502648175
0.11665375190056118,1.5664044480750299,-0.7907286132995026
0.1172645045283128,1.5664564703302135,-0.7906913141437563
0.11787525715606444,1.5665073557675369,-0.7907689379378681
0.11848600978381607,1.566556999642659,-0.7909599432429534
0.1190967624115677,1.5666053015427823,-0.7912624685153893
0.11970751503931934,1.5666521656129204,-0.7916743395125106
0.12031826766707095,1.5666975007655914,-0.7921930776002305
0.12092902029482258,1.566741220873555,-0.7928159089305069
0.12153977292257422,1.566783244945255,-0.7935397744536603
0.12215052555032585,1.5668234972827004,-0.7943613407282204
0.12276127817807747,1.5668619076215702,-0.7952770114878698
0.1233720308058291,1.5668984112533904,-0.7962829399233914
0.12398278343358073,1.566932949129693,-0.7973750416350256
0.12459353606133236,1.5669654679481158,-0.7985490082088825
0.125204288689084,1.5669959202204726,-0.7998003213694823
0.1258150413168356,1.5670242643228773,-0.8011242676582838
0.12642579394458725,1.567050464528051,-0.8025159535878801
0.12703654657233887,1.567074491020013,-0.8039703212195684
0.12764729920009052,1.5670963198913992,-0.8054821641111227
0.12825805182784214,1.5671159331236975,-0.80704614358167
0.12886880445559376,1.5671333185507546,-0.8086568052391908
0.1294795570833454,1.5671484698059444,-0.8103085957165919
0.13009030971109703,1.5671613862534306,-0.8119958795617356
0.13070106233884865,1.5671720729040075,-0.8137129562273797
0.13131181496660027,1.567180540316037,-0.8154540771069212
0.13192256759435192,1.5671868044820363,-0.8172134625628117
0.13253332022210354,1.5671908867015052,-0.818985318894564
0.1331440728498552,1.567192813440619,-0.8207638551949239
0.13375482547760678,1.567192616179429,-0.822543300043023
0.13436557810535843,1.5671903312472506,-0.8243179179853718
0.13497633073311005,1.5671859996469384,-0.8260820257558795
0.1355870833608617,1.567179666868757,-0.8278300081885411
0.13619783598861332,1.5671713826945919,-0.829556333777386
0.13680858861636494,1.5671612009932434,-0.8312555698402937
0.13741934124411656,1.567149179507562,-0.8329223972449833
0.13803009387186818,1.5671353796341976,-0.8345516246574244
0.13864084649961983,1.56711986619673,-0.8361382022751527
0.13925159912737145,1.5671027072129684,-0.8376772350095075
0.1398623517551231,1.5670839736571829,-0.8391639950838188
0.14047310438287472,1.5670637392180597,-0.8405939340158245
0.14108385701062634,1.5670420800531402,-0.8419626939557768
0.141694609638378,1.5670190745405188,-0.8432661183533716
0.1423053622661296,1.566994803028551,-0.8445002619292025
0.14291611489388123,1.566969347584324,-0.8456613999290647
0.14352686752163288,1.566942791741624,-0.8467460366412627
0.1441376201493845,1.5669152202491214,-0.847750913160123
0.14474837277713615,1.5668867188194804,-0.8486730143809823
0.14535912540488774,1.5668573738800835,-0.8495095752140036
0.14596987803263936,1.566827272326041,-0.8502580860076706
0.146580630660391,1.5667965012761342,-0.8509162971737658
0.14719138328814263,1.5667651478323281,-0.851482223009115
0.14780213591589428,1.5667332988434526,-0.851954144711372
0.1484128885436459,1.5667010406736466,-0.8523306125882115
0.14902364117139752,1.566668458976117,-0.8526104474617433
0.14963439379914917,1.5666356384727538,-0.8527927412727053
0.1502451464269008,1.5666026627401068,-0.8528768568901548
0.15085589905465244,1.5665696140022105,-0.8528624271353946
0.15146665168240406,1.5665365729307117,-0.8527493530309705
0.15207740431015568,1.5665036184527295,-0.852537801286811
0.15268815693790733,1.5664708275668457,-0.8522282010388806
0.15329890956565892,1.5664382751676031,-0.851821239856263
0.15390966219341054,1.5664060338788481,-0.8513178590357574
0.1545204148211622,1.5663741738962405,-0.8507192482040402
0.1551311674489138,1.5663427628392064,-0.85002683924942
0.15574192007666546,1.566311865612599,-0.8492422996072194
0.15635267270441708,1.5662815442782874,-0.8483675249241238
0.1569634253321687,1.5662518579368712,-0.8474046311282364
0.15757417795992035,1.5662228626196903,-0.84635594593361
0.15818493058767197,1.5661946111912664,-0.8452239998088193
0.15879568321542362,1.5661671532622803,-0.8440115164408102
0.15940643584317524,1.5661405351131696,-0.8427214027263271
0.16001718847092686,1.5661147996283935,-0.8413567383244569
0.1606279410986785,1.566089986241381,-0.8399207648047284
0.1612386937264301,1.5660661308901607,-0.8384168744262783
0.16184944635418172,1.5660432659836312,-0.8368485985843583
0.16246019898193337,1.5660214203784062,-0.8352195959613687
0.163070951609685,1.5660006193661442,-0.8335336404199426
0.16368170423743664,1.5659808846712402,-0.8317946086764081
0.16429245686518826,1.5659622344587343,-0.8300064677936018
0.16490320949293988,1.5659446833522623,-0.8281732625315023
0.16551396212069153,1.5659282424618497,-0.8262991025954085
0.16612471474844315,1.5659129194213284,-0.8243881498209384
0.1667354673761948,1.5658987184351223,-0.8224446053349077
0.16734622000394642,1.5658856403341364,-0.8204726967316259
0.16795697263169804,1.5658736826404525,-0.8184766653035455
0.16856772525944969,1.5658628396405152,-0.8164607533645902
0.16917847788720128,1.5658531024664735,-0.8144291917047946
0.16978923051495293,1.5658444591853222,-0.8123861872133984
0.17039998314270455,1.5658368948954653,-0.8103359107073975
0.17101073577045617,1.5658303918303134,-0.8082824850016556
0.17162148839820782,1.5658249294685045,-0.8062299732555348
0.17223224102595944,1.5658204846503228,-0.8041823676300522
0.17284299365371106,1.5658170316998832,-0.8021435782886873
0.1734537462814627,1.5658145425526264,-0.8001174227729598
0.17406449890921433,1.5658129868876676,-0.7981076157836514
0.17467525153696598,1.5658123322645263,-0.7961177593957449
0.1752860041647176,1.5658125442637616,-0.7941513337347769
0.17589675679246922,1.565813586631025,-0.7922116881399133
0.17650750942022086,1.5658154214240418,-0.7903020328374644
0.17711826204797246,1.565818009162031,-0.7884254311470061
0.1777290146757241,1.5658213089770614,-0.7865847922399728
0.17833976730347573,1.565825278766856,-0.7847828644688327
0.17895051993122735,1.5658298753485467,-0.7830222292831077
0.179561272558979,1.5658350546128863,-0.78130529574595
0.18017202518673062,1.5658407716784366,-0.7796342956633159
0.18078277781448224,1.5658469810452447,-0.7780112793355451
0.18139353044223389,1.5658536367475424,-0.7764381119385843
0.1820042830699855,1.5658606925049985,-0.7749164705406121
0.18261503569773715,1.5658681018720735,-0.7734478417567157
0.18322578832548878,1.5658758183850368,-0.7720335200430192
0.1838365409532404,1.5658837957062168,-0.7706746066286291
0.18444729358099204,1.5658919877650714,-0.7693720090820693
0.18505804620874364,1.5659003488956853,-0.7681264415065783
0.18566879883649529,1.5659088339703107,-0.7669384253564472
0.1862795514642469,1.5659173985285955,-0.7658082908647047
0.18689030409199853,1.5659259989021521,-0.7647361790699573
0.18750105671975018,1.5659345923341539,-0.7637220444290653
0.1881118093475018,1.5659431370936527,-0.7627656579992762
0.18872256197525342,1.5659515925843461,-0.7618666111727221
0.18933331460300507,1.5659599194475384,-0.7610243199437502
0.18994406723075669,1.5659680796590627,-0.760238029688065
0.19055481985850833,1.5659760366199638,-0.7595068204311719
0.19116557248625995,1.565983755240753,-0.7588296125821268
0.19177632511401158,1.565991202019083,-0.7582051731070814
0.19238707774176322,1.5659983451107073,-0.7576321221160722
0.19299783036951482,1.56600515439362,-0.7571089398352661
0.19360858299726647,1.566011601525289,-0.7566339739357603
0.19421933562501809,1.5660176599929334,-0.756205447189351
0.1948300882527697,1.5660233051568024,-0.7558214654204833
0.19544084088052135,1.5660285142864576,-0.7554800257238617
0.19605159350827298,1.5660332665900667,-0.7551790249150697
0.19666234613602462,1.5660375432367555,-0.754916268182994
0.19727309876377624,1.566041327372073,-0.7546894779111406
0.19788385139152787,1.566044604126663,-0.7544963026354632
0.1984946040192795,1.566047360618241,-0.7543343261060496
0.19910535664703113,1.5660495859470118,-0.7542010764202305
0.19971610927478275,1.566051271184668,-0.7540940351946962
0.20032686190253438,1.5660524093571426,-0.7540106467447598
0.200937614530286,1.5660529954212976,-0.753948327238984
0.20154836715803764,1.566053026235749,-0.753904473798451
0.20215911978578927,1.566052500526054,-0.7538764735099729
0.20276987241354089,1.566051418844482,-0.7538617123237971
0.20338062504129253,1.5660497835246319,-0.7538575838068611
0.20399137766904415,1.5660475986311375,-0.7538614977239863
0.2046021302967958,1.5660448699047522,-0.7538708884197951
0.20521288292454742,1.5660416047030787,-0.7538832229758237
0.20582363555229904,1.5660378119372438,-0.7538960091182295
0.2064343881800507,1.5660335020048166,-0.7539068028527038
0.2070451408078023,1.5660286867192728,-0.7539132158046109
0.2076558934355539,1.5660233792363187,-0.753912922243529
