frequency,refractiveIndex,absorption
0.0006107526277516292,0.8668664123939073,-0.12857841013696586
0.0012215052555032584,0.8690742546415682,-0.2572781919504514
0.0018322578832548875,0.8712927419837316,-0.38609173417163106
0.002443010511006517,0.8735225154138622,-0.5150118379491212
0.003053763138758146,0.8757641936484362,-0.644031764870757
0.003664515766509775,0.878018371166182,-0.7731452833258319
0.004275268394261404,0.8802856162913354,-0.9023467130491579
0.004886021022013034,0.8825664693233821,-1.0316309676894864
0.005496773649764663,0.8848614407158792,-1.1609935952456654
0.006107526277516292,0.8871710093071977,-1.290430816214481
0.006718278905267922,0.8894956206062847,-1.4199395592945947
0.00732903153301955,0.8918356851368047,-1.5495174944912575
0.00793978416077118,0.8941915768433293,-1.6791630634669925
0.008550536788522809,0.8965636315636029,-1.808875506984036
0.009161289416274438,0.898952145571245,-1.938654889285259
0.009772042044026067,0.9013573741935625,-2.0685021192617583
0.010382794671777697,0.9037795305095884,-2.1984189682575552
0.010993547299529326,0.9062187841337483,-2.3284080843643964
0.011604299927280955,0.9086752600909197,-2.4584730030642086
0.012215052555032585,0.9111490377889829,-2.588618154081114
0.012825805182784214,0.9136401500952105,-2.7188488643119637
0.013436557810535843,0.9161485825231614,-2.8491713567117736
0.014047310438287471,0.9186742725368713,-2.9795927450202337
0.0146580630660391,0.9212171089793196,-3.1101210242266837
0.015268815693790731,0.9237769316322261,-3.2407650566841237
0.01587956832154236,0.9263535309142231,-3.3715345537978463
0.01649032094929399,0.9289466477243585,-3.5024400532316236
0.017101073577045618,0.9315559734377235,-3.633492891593647
0.01771182620479725,0.9341811500597077,-3.7647051725854683
0.018322578832548876,0.9368217705450197,-3.8960897306208317
0.018933331460300507,0.9394773792870991,-4.027660089946367
0.019544084088052135,0.9421474727829511,-4.159430419323344
0.020154836715803762,0.9448315004777234,-4.291415482358374
0.020765589343555393,0.9475288657925164,-4.423630583600825
0.02137634197130702,0.9502389273379318,-4.556091510556772
0.021987094599058652,0.9529610003149133,-4.688814471800332
0.02259784722681028,0.9556943581031541,-4.821816031397135
0.02320859985456191,0.958438234036285,-4.955113039886073
0.023819352482313542,0.9611918233615564,-5.088722562099287
0.02443010511006517,0.9639542853805448,-5.222661802130636
0.025040857737816797,0.9667247457658606,-5.35694802579459
0.025651610365568428,0.9695022990474674,-5.491598480945104
0.026262362993320056,0.9722860112607508,-5.626630316051529
0.026873115621071687,0.9750749227470461,-5.762060497452262
0.027483868248823314,0.9778680510958991,-5.897905725727491
0.028094620876574942,0.9806643942170542,-6.034182351650545
0.028705373504326573,0.9834629335287809,-6.170906292191176
0.0293161261320782,0.9862626372480927,-6.308092947052992
0.029926878759829835,0.9890624637672589,-6.445757116233679
0.030537631387581463,0.991861365100101,-6.583912919097572
0.03114838401533309,0.9946582903808158,-6.722573715445792
0.03175913664308472,0.9974521893973912,-6.861752029061842
0.03236988927083635,1.0002420161412438,-7.001459474198004
0.03298064189858798,1.0030267323544881,-7.141706685449603
0.03359139452633961,1.0058053110560317,-7.282503251445049
0.034202147154091235,1.0085767400279182,-7.423857652752313
0.03481289978184286,1.0113400252435178,-7.565777204375172
0.0354236524095945,1.014094194219626,-7.70826800318021
0.036034405037346125,1.0168382992752034,-7.851334880560405
0.03664515766509775,1.0195714206801612,-7.994981360604967
0.03725591029284938,1.0222926696786026,-8.139209624005302
0.037866662920601014,1.0250011913719337,-8.284020477887227
0.038477415548352635,1.0276961674483673,-8.429413331718695
0.03908816817610427,1.030376818746715,-8.575386179399866
0.039698920803855904,1.0330424076435147,-8.721935587602369
0.040309673431607525,1.035692240254083,-8.869056690382854
0.04092042605935916,1.0383256684393931,-9.016743190056436
0.04153117868711079,1.0409420916121517,-9.16498736427761
0.04214193131486242,1.0435409583368824,-9.313780079238786
0.04275268394261404,1.0461217677202665,-9.463110808862751
0.04336343657036568,1.0486840705893212,-9.612967659832309
0.043974189198117304,1.051227470456441,-9.763337402270597
0.04458494182586893,1.0537516242715068,-9.914205505858444
0.04519569445362056,1.0562562429626245,-10.065556181149502
0.045806447081372194,1.0587410917680558,-10.217372425823974
0.04641719970912382,1.061205990363141,-10.369636075599377
0.04702795233687545,1.0636508127868236,-10.522327859504365
0.047638704964627084,1.066075487173439,-10.675427459204828
0.048249457592378704,1.0684799952961048,-10.828913572061884
0.04886021022013034,1.070864371928844,-10.982763977592771
0.049470962847881966,1.0732287040351283,-11.136955606999724
0.050081715475633594,1.0755731297910929,-11.29146461542762
0.05069246810338522,1.0778978374520696,-11.446266456610912
0.051303220731136856,1.0802030640715077,-11.60133595956789
0.05191397335888848,1.0824890940814975,-11.756647407007307
0.05252472598664011,1.0847562577444825,-11.912174615109924
0.053135478614391746,1.0870049294856765,-12.067891014359212
0.05374623124214337,1.0892355261159288,-12.223769731097002
0.054356983869895,1.091448504954665,-12.379783669490742
0.05496773649764663,1.093644361862546,-12.535905593606008
0.05557848912539826,1.0958236291933445,-12.692108209288653
0.056189241753149884,1.0979868736744034,-12.848364245570885
0.05679999438090152,1.1001346942248706,-13.004646535325566
0.057410747008653146,1.1022677197206558,-13.160928094906291
0.05802149963640477,1.104386606714844,-13.317182202520694
0.0586322522641564,1.106492037122016,-13.473382475096964
0.059243004891908035,1.10858471587462,-13.629502943416147
0.05985375751965967,1.1106653685592691,-13.78551812529473
0.06046451014741129,1.1127347390405204,-13.941403096612785
0.061075262775162925,1.1147935870793237,-14.097133559998026
0.06168601540291455,1.1168426859530938,-14.252685910984559
0.06229676803066618,1.1188828200839238,-14.40803730147999
0.0629075206584178,1.1209147826812125,-14.563165700384058
0.06351827328616944,1.1229393734046318,-14.718049951214251
0.06412902591392107,1.1249573960530117,-14.872669826605094
0.0647397785416727,1.1269696562844564,-15.027006079557648
0.06535053116942433,1.1289769593726722,-15.181040491327638
0.06596128379717596,1.1309801080042001,-15.334755915849518
0.0665720364249276,1.1329799001209393,-15.488136320605532
0.06718278905267921,1.1349771268121704,-15.641166823855482
0.06779354168043085,1.1369725702598665,-15.793833728156446
0.06840429430818247,1.1389670017409883,-15.946124550107347
0.06901504693593409,1.1409611796901444,-16.09802804626359
0.06962579956368573,1.1429558478257809,-16.249534235175933
0.07023655219143736,1.144951733342862,-16.40063441551729
0.070847304819189,1.146949545174846,-16.551321180265372
0.07145805744694061,1.1489499723274745,-16.70158842692467
0.07206881007469225,1.150953682286843,-16.851431363771805
0.07267956270244387,1.1529613195039483,-17.0008465121216
0.0732903153301955,1.1549735039578113,-17.149831704619203
0.07390106795794714,1.1569908297991283,-17.29838607956767
0.07451182058569876,1.1590138640761967,-17.44651007131432
0.0751225732134504,1.1610431455448464,-17.594205396724394
0.07573332584120203,1.163079183563844,-17.741475037778187
0.07634407846895366,1.16512245707719,-17.888323220340993
0.07695483109670527,1.167173413684636,-18.03475538915745
0.0775655837244569,1.1692324688014926,-18.18077817913823
0.07817633635220854,1.1713000049088513,-18.326399383009708
0.07878708897996017,1.1733763708950489,-18.471627915411666
0.07939784160771181,1.1754618814892068,-18.616473773534153
0.08000859423546343,1.1775568167874644,-18.760947994396822
0.08061934686321505,1.1796614218724213,-18.905062608882904
0.08123009949096668,1.181775906526141,-19.048830592649868
0.08184085211871832,1.1839004450369282,-19.192265814050717
0.08245160474646994,1.1860351760999266,-19.335382979207534
0.08306235737422157,1.1881802028114066,-19.478197574391512
0.08367311000197321,1.1903355927564583,-19.62072580587326
0.08428386262972484,1.1925013781895586,-19.76298453741679
0.08489461525747646,1.1946775563073557,-19.904991225601623
0.08550536788522808,1.1968640896127558,-20.04676385316665
0.08611612051297972,1.1990609063691764,-20.18832086057885
0.08672687314073135,1.2012679011436338,-20.329681076040085
0.08733762576848299,1.2034849354370816,-20.47086364415177
0.08794837839623461,1.205711838400132,-20.611887953468667
0.08855913102398623,1.207948407632139,-20.75277356317608
0.08916988365173786,1.2101944100612576,-20.893540129135232
0.0897806362794895,1.2124495829028943,-21.034207329546604
0.09039138890724112,1.2147136346937173,-21.17479479048341
0.09100214153499275,1.216986246398074,-21.315322011554635
0.09161289416274439,1.2192670725834807,-21.455808291958956
0.09222364679049602,1.221555742661512,-21.596272657190795
0.09283439941824764,1.223851862190243,-21.736733786662814
0.09344515204599926,1.2261550142341324,-21.877209942506934
0.0940559046737509,1.2284647607769446,-22.017718899814664
0.09466665730150253,1.2307806441832387,-22.158277878573102
0.09527740992925417,1.2331021887035682,-22.298903477549544
0.09588816255700579,1.2354289020185005,-22.43961161037128
0.09649891518475741,1.237760276816314,-22.58041744403909
0.09710966781250904,1.2400957923991156,-22.72133534010548
0.09772042044026068,1.2424349163120205,-22.8623787987363
0.09833117306801231,1.2447771059898463,-23.003560405868164
0.09894192569576393,1.247121810415874,-23.1448917836538
0.09955267832351557,1.249468471786938,-23.286383544383636
0.10016343095126719,1.2518165271793467,-23.428045248047734
0.10077418357901882,1.2541654102099302,-23.569885363694617
0.10138493620677044,1.2565145526866837,-23.711911234721715
0.10199568883452208,1.2588633862434462,-23.854129048218375
0.10260644146227371,1.2612113439532229,-23.996543808463176
0.10321719409002535,1.2635578619148105,-24.13915931465896
0.10382794671777695,1.2659023808075558,-24.281978142972214
0.10443869934552859,1.268244347409263,-24.425001632921386
0.10504945197328022,1.2705832160724315,-24.568229878143594
0.10566020460103186,1.2729184501541833,-24.71166172154676
0.10627095722878349,1.2752495233956187,-24.85529475483711
0.10688170985653511,1.2775759212463738,-24.99912532239467
0.10749246248428675,1.2798971421306422,-25.1431485294461
0.10810321511203837,1.2822126986510458,-25.28735825447346
0.10871396773979,1.2845221187271612,-25.43174716577384
0.10932472036754162,1.2868249466657065,-25.57630674207221
0.10993547299529326,1.2891207441598294,-25.721027297071856
0.11054622562304489,1.2914090912151528,-25.865898007813357
0.11115697825079653,1.2936895870006864,-26.010906946695837
0.11176773087854816,1.2959618506228843,-26.1560411170067
0.11237848350629977,1.2982255218216663,-26.301286491786197
0.1129892361340514,1.3004802615873583,-26.44662805584928
0.11359998876180304,1.302725752697954,-26.592049850772156
0.11421074138955467,1.3049617001764144,-26.737535022643815
0.11482149401730629,1.3071878316679681,-26.883065872375834
0.11543224664505793,1.309403897737762,-27.028623908354867
0.11604299927280955,1.3116096720894808,-27.174189901217943
0.11665375190056118,1.3138049517057928,-27.31974394052688
0.1172645045283128,1.3159895569118816,-27.46526549311139
0.11787525715606444,1.3181633313633914,-27.610733462854167
0.11848600978381607,1.3203261419605659,-27.756126251682282
0.1190967624115677,1.3224778786904365,-27.90142182153567
0.11970751503931934,1.324618454399208,-28.04659775708016
0.12031826766707095,1.3267478044971608,-28.19163132893543
0.12092902029482258,1.3288658865986098,-28.336499557191654
0.12153977292257422,1.3309726800995645,-28.4811792749883
0.12215052555032585,1.333068185695935,-28.625647191939553
0.12276127817807747,1.3351524248452529,-28.76987995718774
0.1233720308058291,1.337225439174997,-28.913854221876218
0.12398278343358073,1.3392872898406765,-29.057546700841293
0.12459353606133236,1.3413380568369877,-29.200934233322318
0.125204288689084,1.3433778382653299,-29.343993842505586
0.1258150413168356,1.3454067495611377,-29.486702793716713
0.12642579394458725,1.347424922684425,-29.629038651091147
0.12703654657233887,1.3494325052770146,-29.770979332557406
0.12764729920009052,1.3514296597899467,-29.912503162977217
0.12825805182784214,1.3534165625845442,-30.053588925295866
0.12886880445559376,1.35539340301059,-30.194215909567387
0.1294795570833454,1.3573603824650848,-30.334363959725373
0.13009030971109703,1.3593177134349945,-30.47401351798266
0.13070106233884865,1.3612656185273702,-30.61314566675208
0.13131181496660027,1.3632043294901313,-30.75174216799075
0.13192256759435192,1.365134086226839,-30.88978549987977
0.13253332022210354,1.3670551358085683,-31.027258890761843
0.1331440728498552,1.3689677314860798,-31.164146350269235
0.13375482547760678,1.3708721317052563,-31.30043269758423
0.13436557810535843,1.372768599128808,-31.436103586783762
0.13497633073311005,1.3746573996670413,-31.571145529232208
0.1355870833608617,1.3765388015205007,-31.70554591299034
0.13619783598861332,1.3784130742370857,-31.839293019225916
0.13680858861636494,1.38028048778619,-31.972376035613838
0.13741934124411656,1.3821413116523216,-32.10478506672651
0.13803009387186818,1.383995813950467,-32.23651114142407
0.13864084649961983,1.385844260565438,-32.36754621726115
0.13925159912737145,1.3876869143172446,-32.497883181938285
0.1398623517551231,1.3895240341544592,-32.627515851831646
0.14047310438287472,1.3913558743774126,-32.756438967645494
0.14108385701062634,1.3931826838928871,-32.88464818723744
0.141694609638378,1.3950047055019394,-33.012140075676236
0.1423053622661296,1.3968221752222467,-33.13891209259911
0.14291611489388123,1.398635321646352,-33.264962576940555
0.14352686752163288,1.4004443653369651,-33.390290729114945
0.1441376201493845,1.402249518260411,-33.514896590738914
0.14474837277713615,1.4040509832591443,-33.638781021988386
0.14535912540488774,1.4058489535641905,-33.7619456766876
0.14596987803263936,1.407643612348134,-33.884392975237894
0.146580630660391,1.409435132319274,-34.0061260754958
0.14719138328814263,1.4112236753573504,-34.12714884171541
0.14780213591589428,1.413009392191174,-34.24746581167658
0.1484128885436459,1.4147924221183272,-34.36708216212392
0.14902364117139752,1.4165728927670334,-34.486003672643704
0.14963439379914917,1.4183509199001185,-34.60423668811281
0.1502451464269008,1.4201266072609153,-34.7217880798552
0.15085589905465244,1.4219000464608165,-34.83866520564238
0.15146665168240406,1.4236713169080761,-34.95487586868217
0.15207740431015568,1.4254404857773628,-35.070428275735686
0.15268815693790733,1.42720760801943,-35.18533099450901
0.15329890956565892,1.4289727264101966,-35.29959291046426
0.15390966219341054,1.4307358716383924,-35.41322318319739
0.1545204148211622,1.4324970624308426,-35.52623120253054
0.1551311674489138,1.4342563057144022,-35.638626544461964
0.15574192007666546,1.4360135968133552,-35.75041892712579
0.15635267270441708,1.4377689196811243,-35.86161816690193
0.1569634253321687,1.439522247165002,-35.97223413482126
0.15757417795992035,1.4412735413024775,-36.08227671341085
0.15818493058767197,1.4430227536477636,-36.191755754114205
0.15879568321542362,1.4447698256269694,-36.30068103542821
0.15940643584317524,1.4465146889203548,-36.409062221886074
0.16001718847092686,1.4482572658699782,-36.5169088240202
0.1606279410986785,1.4499974699110676,-36.62423015942847
0.1612386937264301,1.4517352060253386,-36.73103531506602
0.16184944635418172,1.4534703712144437,-36.83733311088072
0.16246019898193337,1.4552028549917393,-36.94313206490066
0.163070951609685,1.456932539890462,-37.04844035988272
0.16368170423743664,1.4586593019864347,-37.1532658116196
0.16429245686518826,1.4603830114333336,-37.25761583900149
0.16490320949293988,1.4621035330086372,-37.36149743591625
0.16551396212069153,1.4638207266682541,-37.46491714506992
0.16612471474844315,1.4655344481079,-37.56788103380065
0.1667354673761948,1.4672445493292547,-37.670394671951776
0.16734622000394642,1.4689508792089971,-37.77246311186005
0.16795697263169804,1.4706532840687592,-37.87409087051192
0.16856772525944969,1.472351608244107,-37.97528191390855
0.16917847788720128,1.474045694650696,-38.07603964367427
0.16978923051495293,1.4757353853457422,-38.17636688593491
0.17039998314270455,1.477420522083013,-38.2762658824846
0.17101073577045617,1.479100946859628,-38.37573828424895
0.17162148839820782,1.4807765024528987,-38.474785147049744
0.17223224102595944,1.4824470329456436,-38.57340692966127
0.17284299365371106,1.4841123842383355,-38.67160349414718
0.1734537462814627,1.4857724045466296,-38.76937410845249
0.17406449890921433,1.487426944882762,-38.86671745122385
0.17467525153696598,1.489075859519513,-38.963631618818
0.1752860041647176,1.4907190064354137,-39.060114134454736
0.17589675679246922,1.492356247739998,-39.156161959460995
0.17650750942022086,1.4939874500779748,-39.25177150654943
0.17711826204797246,1.495612485011318,-39.346938655060434
0.1777290146757241,1.4972312293782672,-39.44165876810278
0.17833976730347573,1.4988435656284715,-39.535926711507116
0.17895051993122735,1.5004493821334488,-39.629736874514336
0.179561272558979,1.5020485734717415,-39.72308319210586
0.18017202518673062,1.5036410406881997,-39.81595916888272
0.18078277781448224,1.5052266915269013,-39.90835790439488
0.18139353044223389,1.5068054406373643,-40.000272119818526
0.1820042830699855,1.508377209753754,-40.0916941858716
0.18261503569773715,1.5099419278469248,-40.18261615186146
0.18322578832548878,1.5114995312492012,-40.27302977574796
0.1838365409532404,1.513049963751891,-40.36292655510984
0.18444729358099204,1.51459317667568,-40.45229775889353
0.18505804620874364,1.5161291289140282,-40.541134459828044
0.18566879883649529,1.5176577869499135,-40.62942756738442
0.1862795514642469,1.5191791248462387,-40.71716786115805
0.18689030409199853,1.5206931242103805,-40.80434602455345
0.18750105671975018,1.5221997741333722,-40.89095267865164
0.1881118093475018,1.523699071104363,-40.976978416134905
0.18872256197525342,1.5251910189009947,-41.06241383515526
0.18933331460300507,1.5266756284564598,-41.14724957302322
0.18994406723075669,1.5281529177040458,-41.23147633960347
0.19055481985850833,1.529622911400046,-41.31508495030066
0.19116557248625995,1.531085640925953,-41.39806635852565
0.19177632511401158,1.5325411440709442,-41.48041168753047
0.19238707774176322,1.533989464795662,-41.56211226150812
0.19299783036951482,1.5354306529784074,-41.64315963585342
0.19360858299726647,1.5368647641448332,-41.723545626487414
0.19421933562501809,1.5382918591823251,-41.80326233814853
0.1948300882527697,1.5397120040402412,-41.88230219156255
0.19544084088052135,1.5411252694172428,-41.96065794940431
0.19605159350827298,1.5425317304369546,-42.038322740970784
0.19666234613602462,1.5439314663132093,-42.115290085489285
0.19727309876377624,1.545324560006179,-42.19155391399059
0.19788385139152787,1.5467110978706513,-42.26710858968195
0.1984946040192795,1.5480911692977655,-42.34194892675988
0.19910535664703113,1.549464866351505,-42.41607020760912
0.19971610927478275,1.5508322834012291,-42.48946819833986
0.20032686190253438,1.5521935167515526,-42.562139162620994
0.200937614530286,1.5535486642708358,-42.63407987377333
0.20154836715803764,1.554897825019555,-42.70528762509352
0.20215911978578927,1.5562410988798219,-42.775760238382794
0.20276987241354089,1.557578586187258,-42.84549607066532
0.20338062504129253,1.5589103873664276,-42.91449401908277
0.20399137766904415,1.5602366025710246,-42.98275352396126
0.2046021302967958,1.5615573313299378,-43.05027457005002
0.20521288292454742,1.5628726722003254,-43.11705768593872
0.20582363555229904,1.564182722428752,-43.1831039416683
0.2064343881800507,1.5654875776214343,-43.24841494455048
0.2070451408078023,1.5667873314245842,-43.31299283322483
0.2076558934355539,1.568082075215806,-43.376840269978466
0.20826664606330555,1.5693718978074096,-43.43996043137163
0.20887739869105718,1.570656885162545,-43.502356997201026
0.20948815131880882,1.5719371201249046,-43.56403413785687
