frequency,refractiveIndex,absorption
0.0006107526277516292,1.4917229789509359,-0.0002678067833056247
0.0012215052555032584,1.4918384768966695,-0.0010717484039171738
0.0018322578832548875,1.4920307726087767,-0.0024133870175067082
0.002443010511006517,1.4922995653930853,-0.004295320695047046
0.003053763138758146,1.4926444354779762,-0.00672117513865746
0.003664515766509775,1.493064845206084,-0.009695592081280256
0.004275268394261404,1.4935601405542553,-0.013224214368553299
0.004886021022013034,1.4941295529730472,-0.017313667721932043
0.005496773649764663,1.4947722015350093,-0.02197153918371898
0.006107526277516292,1.4954870953797632,-0.027206352247142632
0.006718278905267922,1.4962731364421646,-0.033027538678284334
0.00732903153301955,1.4971291224487722,-0.03944540704151868
0.00793978416077118,1.4980537501667428,-0.04647110794580162
0.008550536788522809,1.4990456188883985,-0.05411659603689967
0.009161289416274438,1.5001032341340172,-0.06239458876843531
0.009772042044026067,1.501225011554975,-0.07131852199456987
0.010382794671777697,1.5024092810189333,-0.08090250243768511
0.010993547299529326,1.5036542908588715,-0.09116125709583042
0.011604299927280955,1.5049582122675311,-0.10211007966733596
0.012215052555032585,1.506319143819269,-0.11376477408311184
0.012825805182784214,1.507735116101482,-0.12614159525066118
0.013436557810535843,1.509204096438431,-0.13925718712818536
0.014047310438287471,1.5107239936905494,-0.1531285182614388
0.0146580630660391,1.5122926631132643,-0.16777281493050436
0.015268815693790731,1.5139079112599405,-0.18320749206790132
0.01587956832154236,1.5155675009142933,-0.1994500821238335
0.01649032094929399,1.5172691560384874,-0.21651816206816685
0.017101073577045618,1.5190105667239493,-0.23442927873191816
0.01771182620479725,1.5207893941326605,-0.2532008727040957
0.018322578832548876,1.5226032754176764,-0.27285020101131424
0.018933331460300507,1.5244498286121926,-0.2933942588193027
0.019544084088052135,1.526326657477382,-0.3148497004054467
0.020154836715803762,1.5282313563000076,-0.33723275966058514
0.020765589343555393,1.530161514631225,-0.3605591703873332
0.02137634197130702,1.5321147219589268,-0.38484408666850745
0.021987094599058652,1.5340885723063207,-0.4101020035856926
0.02259784722681028,1.5360806687500865,-0.4363466785729728
0.02320859985456191,1.5380886278518162,-0.4635910536940409
0.023819352482313542,1.5401100839969395,-0.4918471791335422
0.02443010511006517,1.5421426936356102,-0.5211261381946612
0.025040857737816797,1.5441841394203435,-0.5514379740948112
0.025651610365568428,1.5462321342355794,-0.5827916188491494
0.026262362993320056,1.5482844251143095,-0.6151948245301736
0.026873115621071687,1.5503387970373401,-0.6486540971864527
0.027483868248823314,1.5523930766107623,-0.6831746336986061
0.028094620876574942,1.5544451356173945,-0.7187602618441838
0.028705373504326573,1.5564928944379777,-0.7554133838347548
0.0293161261320782,1.5585343253381037,-0.7931349235800851
0.029926878759829835,1.5605674556168967,-0.8319242779225573
0.030537631387581463,1.562590370613459,-0.8717792720751448
0.03114838401533309,1.5646012165672971,-0.9126961194818377
0.03175913664308472,1.566598203328961,-0.9546693863063337
0.03236988927083635,1.5685796069171862,-0.9976919607398802
0.03298064189858798,1.570543771919054,-1.041755027302292
0.03359139452633961,1.5724891137296235,-1.0868480462943277
0.034202147154091235,1.5744141206278466,-1.1329587385403608
0.03481289978184286,1.5763173556855747,-1.180073075542614
0.0354236524095945,1.5781974585066874,-1.2281752751480286
0.036034405037346125,1.5800531467937018,-1.2772478028087908
0.03664515766509775,1.5818832177392945,-1.3272713784968408
0.03725591029284938,1.583686549240571,-1.3782249893112843
0.037866662920601014,1.5854621009341294,-1.4300859077961228
0.038477415548352635,1.58720891505034,-1.4828297159636261
0.03908816817610427,1.588926117085561,-1.5364303349968722
0.039698920803855904,1.5906129162914364,-1.5908600605823493
0.040309673431607525,1.5922686059807503,-1.646089603801975
0.04092042605935916,1.5938925636497578,-1.7020881374925232
0.04153117868711079,1.5954842509173859,-1.7588233479563742
0.04214193131486242,1.5970432132819832,-1.8162614918906597
0.04275268394261404,1.5985690796969887,-1.8743674583766727
0.04336343657036568,1.6000615619671341,-1.9331048357545637
0.043974189198117304,1.60152045396735,-1.9924359831884664
0.04458494182586893,1.6029456306870915,-2.0523221067071113
0.04519569445362056,1.604337047103101,-2.1127233394903104
0.045806447081372194,1.605694736884258,-2.1735988261530688
0.04641719970912382,1.6070188109325094,-2.2349068107638512
0.04702795233687545,1.608309455764362,-2.296604728321437
0.047638704964627084,1.609566931737891,-2.3586492993988357
0.048249457592378704,1.6107915711305323,-2.420996627653607
0.04886021022013034,1.611983776073486,-2.483602299891418
0.049470962847881966,1.6131440163487312,-2.5464214883630114
0.050081715475633594,1.61427282705524,-2.609409054964364
0.05069246810338522,1.615370806151055,-2.6725196570064353
0.051303220731136856,1.6164386118784932,-2.73570785421288
0.05191397335888848,1.6174769600796937,-2.798928216603896
0.05252472598664011,1.6184866214102545,-2.86213543291923
0.053135478614391746,1.6194684184587262,-2.925284419234653
0.05374623124214337,1.620423222780045,-2.9883304274254536
0.054356983869895,1.6213519518510404,-3.051229153133071
0.05496773649764663,1.622255565956395,-3.113936842892812
0.05557848912539826,1.6231350650133558,-3.176410400086861
0.056189241753149884,1.6239914853438222,-3.238607489388887
0.05679999438090152,1.6248258964021558,-3.3004866393765067
0.057410747008653146,1.62563939746737,-3.3620073429915553
0.05802149963640477,1.6264331143081099,-3.423130155539964
0.0586322522641564,1.6272081958289364,-3.483816789928625
0.059243004891908035,1.6279658107062787,-3.544030208849702
0.05985375751965967,1.6287071440223524,-3.6037347136315856
0.06046451014741129,1.6294333939052652,-3.662896029487763
0.061075262775162925,1.6301457681833575,-3.721481386906396
0.06168601540291455,1.630845481061638,-3.77945959893812
0.06229676803066618,1.63153374982817,-3.8368011341484003
0.0629075206584178,1.6322117915978545,-3.893478185020023
0.06351827328616944,1.632880820101082,-3.949464731599802
0.06412902591392107,1.6335420425243392,-4.004736600202854
0.0647397785416727,1.6341966564097754,-4.0592715169988765
0.06535053116942433,1.6348458466204447,-4.113049156322292
0.06596128379717596,1.635490782377685,-4.166051183562446
0.0665720364249276,1.6361326143768997,-4.218261292506817
0.06718278905267921,1.636772471987775,-4.269665237023856
0.06779354168043085,1.637411460544593,-4.320250856991954
0.06840429430818247,1.6380506587322268,-4.370008098393061
0.06901504693593409,1.6386911160729538,-4.4189290275097735
0.06962579956368573,1.639333850519091,-4.467007839178599
0.07023655219143736,1.6399798461560926,-4.514240859071239
0.070847304819189,1.6406300510205256,-4.560626539990902
0.07145805744694061,1.6412853750370404,-4.606165452188305
0.07206881007469225,1.641946688078123,-4.650860267720521
0.07267956270244387,1.642614818150209,-4.694715738890429
0.0732903153301955,1.6432905497093624,-4.737738670824422
0.07390106795794714,1.6439746221094436,-4.779937888262006
0.07451182058569876,1.64466772818539,-4.821324196647811
0.0751225732134504,1.6453705129739324,-4.8619103376356545
0.07573332584120203,1.6460835725737062,-4.901710939128125
0.07634407846895366,1.6468074531463905,-4.940742459997349
0.07695483109670527,1.647542650060266,-4.979023129641964
0.0775655837244569,1.6482896071770963,-5.016572882560088
0.07817633635220854,1.6490487162830136,-5.053413288127811
0.07878708897996017,1.6498203166636838,-5.089567475791316
0.07939784160771181,1.6506046948236826,-5.125060055896519
0.08000859423546343,1.6514020843496207,-5.15991703639379
0.08061934686321505,1.6522126659163008,-5.194165735669098
0.08123009949096668,1.6530365674346346,-5.227834691769399
0.08184085211871832,1.6538738643398805,-5.260953568298428
0.08245160474646994,1.6547245800182602,-5.293553057275369
0.08306235737422157,1.6555886863696743,-5.325664779257265
0.08367311000197321,1.6564661045038933,-5.35732118103762
0.08428386262972484,1.6573567055672307,-5.388555431240859
0.08489461525747646,1.6582603116963048,-5.419401314143824
0.08550536788522808,1.6591766970951969,-5.449893122058037
0.08611612051297972,1.6601055892319478,-5.480065546615377
0.08672687314073135,1.6610466701499789,-5.509953569303091
0.08733762576848299,1.6619995778897503,-5.5395923515960614
0.08794837839623461,1.662963908015585,-5.569017125038897
0.08855913102398623,1.6639392152424126,-5.598263081626387
0.08916988365173786,1.664925015156763,-5.627365264834627
0.0897806362794895,1.665920786026188,-5.656358461649445
0.09039138890724112,1.6669259706910449,-5.685277095936017
0.09100214153499275,1.6679399785322768,-5.714155123488342
0.09161289416274439,1.668962187508724,-5.743025929092378
0.09222364679049602,1.6699919462572914,-5.771922225924015
0.09283439941824764,1.6710285762491233,-5.800875957601344
0.09344515204599926,1.672071373994868,-5.829918203192929
0.0940559046737509,1.6731196132919708,-5.859079085477244
0.09466665730150253,1.6741725475069111,-5.888387682733845
0.09527740992925417,1.675229411885207,-5.917871944332665
0.09588816255700579,1.6762894258820318,-5.947558610374936
0.09649891518475741,1.6773517955062731,-5.977473135621675
0.09710966781250904,1.6784157156709345,-6.007639617929658
0.09772042044026068,1.6794803725427985,-6.038080731398822
0.09833117306801231,1.6805449458843686,-6.068817664415613
0.09894192569576393,1.6816086113812831,-6.099870062758316
0.09955267832351557,1.6826705429484083,-6.131255977913246
0.10016343095126719,1.6837299150080896,-6.162991820728481
0.10077418357901882,1.6847859047341691,-6.195092320515091
0.10138493620677044,1.6858376942555826,-6.227570489683183
0.10199568883452208,1.6868844728135606,-6.260437593982673
0.10260644146227371,1.6879254388667508,-6.293703128395426
0.10321719409002535,1.6889598021387437,-6.327374798709301
0.10382794671777695,1.689986785602848,-6.361458508781603
0.10443869934552859,1.6910056273991758,-6.395958353480668
0.10504945197328022,1.692015582679466,-6.430876617275563
0.10566020460103186,1.6930159253752775,-6.466213778424455
0.10627095722878349,1.6940059498856423,-6.501968518693321
0.10688170985653511,1.6949849726804647,-6.538137738519269
0.10749246248428675,1.695952333816366,-6.574716577514397
0.10810321511203837,1.696907398361986,-6.611698440190074
0.10871396773979,1.697849557730098,-6.649075026765131
0.10932472036754162,1.6987782309142188,-6.686836368905547
0.10993547299529326,1.6996928656277908,-6.724970870229295
0.11054622562304489,1.700592939344288,-6.76346535139596
0.11115697825079653,1.7014779602370074,-6.802305099587202
0.11176773087854816,1.702347468017601,-6.841473922172532
0.11237848350629977,1.7032010346727406,-6.880954204346005
0.1129892361340514,1.7040382650987038,-6.920726970502568
0.11359998876180304,1.7048587976338578,-6.960771949123663
0.11421074138955467,1.705662304489491,-7.001067640923553
0.11482149401730629,1.706448492079645,-7.0415913900067535
0.11543224664505793,1.707217101250891,-7.082319457780936
0.11604299927280955,1.7079679074133938,-7.123227099358229
0.11665375190056118,1.7087007205747227,-7.164288642182523
0.1172645045283128,1.7094153852782783,-7.205477566610344
0.11787525715606444,1.710111780448361,-7.246766588172724
0.11848600978381607,1.7107898191441748,-7.288127741246821
0.1190967624115677,1.711449448225326,-7.329532463860525
0.11970751503931934,1.7120906479314937,-7.3709516833591255
0.12031826766707095,1.7127134313792591,-7.412355902661653
0.12092902029482258,1.7133178439791594,-7.453715286837611
0.12153977292257422,1.7139039627762749,-7.494999749737841
0.12215052555032585,1.7144718957177867,-7.536179040418566
0.12276127817807747,1.7150217808510426,-7.577222829100613
0.1233720308058291,1.715553785455853,-7.618100792412819
0.12398278343358073,1.7160681051148305,-7.658782697674238
0.12459353606133236,1.7165649627256168,-7.699238485976868
0.125204288689084,1.7170446074590173,-7.739438353838459
0.1258150413168356,1.7175073136670618,-7.779352833202258
0.12642579394458725,1.717953379745069,-7.818952869569537
0.12703654657233887,1.7183831269518528,-7.85820989806104
0.12764729920009052,1.7187968981921942,-7.89709591721118
0.12825805182784214,1.719195056765749,-7.935583560308783
0.12886880445559376,1.7195779850865367,-7.973646164110905
0.1294795570833454,1.7199460833771263,-8.011257834764644
0.13009030971109703,1.7202997683416545,-8.048393510782011
0.13070106233884865,1.7206394718217282,-8.085029022926546
0.13131181496660027,1.7209656394392223,-8.121141150880621
0.13192256759435192,1.7212787292299532,-8.156707676572045
0.13253332022210354,1.7215792102721086,-8.191707434052356
0.1331440728498552,1.7218675613132541,-8.226120355829957
0.13375482547760678,1.722144269399632,-8.259927515572995
0.13436557810535843,1.7224098285114149,-8.293111167107403
0.13497633073311005,1.7226647382074172,-8.325654779649781
0.1355870833608617,1.722909502282739,-8.357543069221748
0.13619783598861332,1.7231446274425994,-8.388762026210204
0.13680858861636494,1.723370621995618,-8.419298939042665
0.13741934124411656,1.7235879945695693,-8.449142413963243
0.13803009387186818,1.7237972528525976,-8.478282390902045
0.13864084649961983,1.7239989023626665,-8.50671015544495
0.13925159912737145,1.7241934452479681,-8.53441834691858
0.1398623517551231,1.724381379120779,-8.561400962616833
0.14047310438287472,1.7245631959272176,-8.587653358207533
0.14108385701062634,1.724739380855113,-8.61317224436248
0.141694609638378,1.7249104112821307,-8.637955679670267
0.1423053622661296,1.7250767557660847,-8.66200305989609
0.14291611489388123,1.7252388730792838,-8.685315103663296
0.14352686752163288,1.7253972112885645,-8.707893834641162
0.1441376201493845,1.725552206882517,-8.729742560329173
0.14474837277713615,1.7257042839472803,-8.750865847541446
0.14535912540488774,1.7258538533921464,-8.771269494694415
0.14596987803263936,1.7260013122259896,-8.790960501018159
0.146580630660391,1.7261470428854873,-8.809947032811248
0.14719138328814263,1.7262914126158826,-8.828238386868081
0.14780213591589428,1.7264347729049125,-8.845844951216307
0.1484128885436459,1.7265774589703689,-8.862778163304606
0.14902364117139752,1.7267197893016593,-8.879050465787024
0.14963439379914917,1.726862065255511,-8.894675260058424
0.1502451464269008,1.7270045707058908,-8.909666857695886
0.15085589905465244,1.727147571748066,-8.924040429967024
0.15146665168240406,1.7272913164565293,-8.937811955572569
0.15207740431015568,1.7274360346964888,-8.950998166787581
0.15268815693790733,1.7275819379883626,-8.963616494176769
0.15329890956565892,1.727729219424716,-8.975685010052754
0.15390966219341054,1.7278780536388454,-8.987222370857705
0.1545204148211622,1.7280285968241709,-8.99824775864041
0.1551311674489138,1.728180986803436,-9.008780821810648
0.15574192007666546,1.7283353431465935,-9.018841615346727
0.15635267270441708,1.7284917673361935,-9.028450540636344
0.1569634253321687,1.7286503429789275,-9.03762828512643
0.15757417795992035,1.7288111360619238,-9.046395761961357
0.15818493058767197,1.7289741952522344,-9.05477404978303
0.15879568321542362,1.7291395522379538,-9.062784332867084
0.15940643584317524,1.72930722210922,-9.07044784176578
0.16001718847092686,1.7294772037773327,-9.07778579462537
0.1606279410986785,1.729649480430124,-9.08481933934329
0.1612386937264301,1.7298240200216553,-9.091569496723602
0.16184944635418172,1.7300007757942197,-9.09805710479028
0.16246019898193337,1.7301796868306234,-9.10430276440555
0.163070951609685,1.7303606786346122,-9.110326786342341
0.16368170423743664,1.7305436637372935,-9.116149139950148
0.16429245686518826,1.7307285423273526,-9.121789403548764
0.16490320949293988,1.7309152029028443,-9.127266716676935
0.16551396212069153,1.7311035229422815,-9.132599734317495
0.16612471474844315,1.7312933695927657,-9.137806583213075
0.1667354673761948,1.7314846003728337,-9.142904820378416
0.16734622000394642,1.7316770638877728,-9.147911393906108
0.16795697263169804,1.731870600555053,-9.152842606159261
0.16856772525944969,1.732065043337614,-9.157714079430585
0.16917847788720128,1.7322602184827294,-9.162540724142481
0.16978923051495293,1.7324559462641753,-9.167336709653863
0.17039998314270455,1.7326520417254843,-9.172115437727564
0.17101073577045617,1.7328483154220868,-9.1768895187086
0.17162148839820782,1.7330445741601757,-9.181670750448447
0.17223224102595944,1.7332406217301766,-9.186470100006666
0.17284299365371106,1.7334362596327826,-9.1912976881492
0.1734537462814627,1.733631287795531,-9.196162776652624
0.17406449890921433,1.7338255052779805,-9.201073758420003
0.17467525153696598,1.7340187109636223,-9.206038150397106
0.1752860041647176,1.7342107042367279,-9.21106258927616
0.17589675679246922,1.7344012856423903,-9.216152829961201
0.17650750942022086,1.7345902575281331,-9.221313746762245
0.17711826204797246,1.7347774246655288,-9.226549337276763
0.1777290146757241,1.7349625948503384,-9.231862728908947
0.17833976730347573,1.7351455794798243,-9.237256187970063
0.17895051993122735,1.7353261941059326,-9.242731131293898
0.179561272558979,1.735504258963165,-9.248288140296014
0.18017202518673062,1.7356795994700753,-9.25392697739668
0.18078277781448224,1.7358520467033667,-9.259646604724294
0.18139353044223389,1.7360214378437606,-9.265445205003976
0.1820042830699855,1.7361876165928187,-9.271320204536101
0.18261503569773715,1.7363504335600695,-9.27726829816144
0.18322578832548878,1.73650974661987,-9.2832854761034
0.1838365409532404,1.7366654212375285,-9.289367052577049
0.18444729358099204,1.736817330764356,-9.295507696044934
0.18505804620874364,1.7369653567013577,-9.301701461002963
0.18566879883649529,1.737109388931447,-9.307941821169056
0.1862795514642469,1.7372493259201074,-9.314221703950896
0.18689030409199853,1.7373850748845647,-9.320533526061299
0.18750105671975018,1.737516551931608,-9.326869230153669
0.1881118093475018,1.737643682164297,-9.333220322341951
0.18872256197525342,1.7377663997579005,-9.339577910474924
0.18933331460300507,1.7378846480054755,-9.345932743029318
0.18994406723075669,1.7379983793335967,-9.352275248489768
0.19055481985850833,1.7381075552888312,-9.35859557508059
0.19116557248625995,1.7382121464956266,-9.36488363071868
0.19177632511401158,1.7383121325863486,-9.371129123056054
0.19238707774176322,1.7384075021043004,-9.377321599481101
0.19299783036951482,1.7384982523805952,-9.383450486953624
0.19360858299726647,1.7385843893858337,-9.389505131546027
0.19421933562501809,1.7386659275575913,-9.395474837571163
0.1948300882527697,1.738742889604781,-9.401348906175258
0.19544084088052135,1.7388153062899918,-9.407116673282959
0.19605159350827298,1.7388832161909766,-9.412767546779676
0.19666234613602462,1.7389466654424717,-9.418291042826976
0.19727309876377624,1.7390057074595888,-9.423676821206005
0.19788385139152787,1.7390604026440477,-9.428914719589995
0.1984946040192795,1.7391108180745456,-9.433994786653736
0.19910535664703113,1.7391570271825638,-9.438907313930699
0.19971610927478275,1.739199109414976,-9.443642866334136
0.20032686190253438,1.7392371498847679,-9.44819231126665
0.200937614530286,1.7392712390112695,-9.452546846243246
0.20154836715803764,1.7393014721512206,-9.456698024964625
0.20215911978578927,1.7393279492220683,-9.460637781779234
0.20276987241354089,1.7393507743188252,-9.4643584544802
0.20338062504129253,1.7393700553258706,-9.46785280538909
0.20399137766904415,1.7393859035250068,-9.471114040685519
0.2046021302967958,1.7393984332011094,-9.474135827947721
0.20521288292454742,1.7394077612466858,-9.4769123118713
0.20582363555229904,1.7394140067666009,-9.479438128149223
0.2064343881800507,1.7394172906842396,-9.481708415491461
0.2070451408078023,1.7394177353503386,-9.483718825776503
0.2076558934355539,1.739415464155668,-9.485465532329615
0.20826664606330555,1.7394106011487225,-9.486945236330415
0.20887739869105718,1.7394032706595441,-9.488155171357741
0.20948815131880882,1.7393935969307572,-9.48909310608466
0.21009890394656044,1.7393817037568327,-9.489757345145494
