frequency,refractiveIndex,absorption
0.0006107526277516292,1.018076666498523,-0.011763294935743041
0.0012215052555032584,1.0320777671186547,-0.02694204481740211
0.0018322578832548875,1.0429214679410188,-0.04545359606914176
0.002443010511006517,1.0519809021567899,-0.06677282431627314
0.003053763138758146,1.0599144605708666,-0.09051360531476331
0.003664515766509775,1.0670713181450802,-0.11639598572998328
0.004275268394261404,1.0736577323301308,-0.14420793154785094
0.004886021022013034,1.079805951628527,-0.17378272491466618
0.005496773649764663,1.0856061408302466,-0.2049855277232654
0.006107526277516292,1.0911227219137194,-0.237704963215732
0.006718278905267922,1.0964034383056822,-0.2718475635072444
0.00732903153301955,1.1014847179793317,-0.3073339420792603
0.00793978416077118,1.1063950175534851,-0.3440960552291041
0.008550536788522809,1.111156999730994,-0.3820751797131781
0.009161289416274438,1.1157890034690259,-0.42122037811660895
0.009772042044026067,1.1203060676783294,-0.4614873063784024
0.010382794671777697,1.1247206631813345,-0.5028372675590109
0.010993547299529326,1.1290432282718514,-0.5452364467949207
0.011604299927280955,1.133282568586239,-0.5886552821879182
0.012215052555032585,1.1374461610686257,-0.6330679394511739
0.012825805182784214,1.141540388767747,-0.6784518669828413
0.013436557810535843,1.145570724843663,-0.7247874141637771
0.014047310438287471,1.1495418786727378,-0.7720574999993227
0.0146580630660391,1.1534579132539269,-0.8202473223330076
0.015268815693790731,1.1573223405958155,-0.8693441001275234
0.01587956832154236,1.1611382000039512,-0.9193368429913754
0.01649032094929399,1.16490812294163,-0.9702161433887596
0.017101073577045618,1.1686343872399227,-1.0219739879304337
0.01771182620479725,1.1723189627789552,-1.0746035848776332
0.018322578832548876,1.1759635502793937,-1.128099205561773
0.018933331460300507,1.1795696144821444,-1.1824560378694067
0.019544084088052135,1.183138412721949,-1.2376700502928004
0.020154836715803762,1.1866710196926102,-1.2937378653268858
0.020765589343555393,1.1901683490416886,-1.3506566412158645
0.02137634197130702,1.1936311723080884,-1.4084239612342409
0.021987094599058652,1.1970601356189396,-1.4670377298304966
0.02259784722681028,1.2004557744852413,-1.5264960750814092
0.02320859985456191,1.2038185269748956,-1.5867972570014721
0.023819352482313542,1.2071487454930057,-1.6479395813292412
0.02443010511006517,1.2104467073600111,-1.7099213184801516
0.025040857737816797,1.2137126243466223,-1.7727406274055861
0.025651610365568428,1.2169466512984404,-1.8363954841445593
0.026262362993320056,1.2201488939622114,-1.9008836148889718
0.026873115621071687,1.2233194161080394,-1.966202433414128
0.027483868248823314,1.2264582460276823,-2.0323489827500736
0.028094620876574942,1.2295653824769457,-2.099319880989479
0.028705373504326573,1.232640800120355,-2.1671112711442886
0.0293161261320782,1.235684454527807,-2.2357187749762315
0.029926878759829835,1.2386962867660862,-2.3051374507361655
0.030537631387581463,1.2416762276220397,-2.375361754755876
0.03114838401533309,1.2446242014892972,-2.446385506841999
0.03175913664308472,1.2475401299462094,-2.51820185942514
0.03236988927083635,1.2504239350490094,-2.5908032704210533
0.03298064189858798,1.2532755423611837,-2.6641814797616883
0.03359139452633961,1.256094883737386,-2.738327489554453
0.034202147154091235,1.2588818998779812,-2.8132315478274235
0.03481289978184286,1.2616365426684586,-2.8888831358164753
0.0354236524095945,1.2643587773161715,-2.9652709587482424
0.036034405037346125,1.267048584295568,-3.0423829400704614
0.03664515766509775,1.269705961111832,-3.120206219076238
0.03725591029284938,1.2723309238917908,-3.19872715186667
0.037866662920601014,1.2749235088101036,-3.2779313155900858
0.038477415548352635,1.2774837733579525,-3.3578035158927793
0.03908816817610427,1.2800117974607925,-3.4383277975106723
0.039698920803855904,1.2825076844512928,-3.519487457925189
0.040309673431607525,1.284971561902964,-3.601265064002206
0.04092042605935916,1.287403582329708,-3.683642471527431
0.04153117868711079,1.2898039237562038,-3.7666008475444674
0.04214193131486242,1.2921727901636182,-3.8501206953985423
0.04275268394261404,1.2945104118152093,-3.9341818823800554
0.04336343657036568,1.2968170454658745,-4.018763669860019
0.043974189198117304,1.2990929744598514,-4.103844745801028
0.04458494182586893,1.30133850872048,-4.189403259523686
0.04519569445362056,1.3035539846359607,-4.275416858602649
0.045806447081372194,1.3057397648449482,-4.3618627277622375
0.04641719970912382,1.307896237925816,-4.448717629635039
0.04702795233687545,1.3100238179933426,-4.535957947245686
0.047638704964627084,1.3121229442067097,-4.62355972807389
0.048249457592378704,1.314194080192518,-4.711498729551378
0.04886021022013034,1.316237713386701,-4.799750465840064
0.049470962847881966,1.3182543542992147,-4.88829025573839
0.050081715475633594,1.3202445357053139,-4.977093271559006
0.05069246810338522,1.3222088117673643,-5.066134588819649
0.051303220731136856,1.3241477570911622,-5.155389236585666
0.05191397335888848,1.3260619657206802,-5.2448322483036005
0.05252472598664011,1.3279520500753212,-5.334438712961959
0.053135478614391746,1.3298186398336953,-5.424183826416785
0.05374623124214337,1.3316623807679644,-5.514042942718947
0.054356983869895,1.3334839335329367,-5.60399162527995
0.05496773649764663,1.3352839724139527,-5.69400569771498
0.05557848912539826,1.3370631840377247,-5.7840612942032035
0.056189241753149884,1.338822266050337,-5.874134909205502
0.05679999438090152,1.3405619257664299,-5.964203446385736
0.057410747008653146,1.342282878793852,-6.054244266579314
0.05802149963640477,1.3439858476378315,-6.144235234661463
0.0586322522641564,1.3456715602888252,-6.234154765166073
0.059243004891908035,1.347340748798173,-6.323981866514036
0.05985375751965967,1.348994147845551,-6.413696183711943
0.06046451014741129,1.3506324933023643,-6.503278039387352
0.061075262775162925,1.3522565207950061,-6.592708473032282
0.06168601540291455,1.3538669642719412,-6.681969278332438
0.06229676803066618,1.3554645545785315,-6.7710430384635005
0.0629075206584178,1.3570500180433787,-6.859913159245576
0.06351827328616944,1.3586240750800012,-6.948563900048992
0.06412902591392107,1.3601874388074675,-7.0369804023554705
0.0647397785416727,1.3617408136936129,-7.125148715882855
0.06535053116942433,1.3632848942243427,-7.213055822191302
0.06596128379717596,1.364820363602429,-7.300689655693385
0.0665720364249276,1.3663478924790984,-7.388039122002236
0.06718278905267921,1.3678681377216355,-7.475094113556719
0.06779354168043085,1.3693817412200462,-7.561845522473006
0.06840429430818247,1.3708893287358015,-7.648285250578714
0.06901504693593409,1.3723915087954546,-7.734406216596162
0.06962579956368573,1.3738888716318645,-7.820202360448441
0.07023655219143736,1.375381988175569,-7.905668644673075
0.070847304819189,1.3768714090987835,-7.990801052933948
0.07145805744694061,1.3783576639142476,-8.07559658563522
0.07206881007469225,1.3798412601310888,-8.160053252646081
0.07267956270244387,1.3813226824696416,-8.244170063158487
0.0732903153301955,1.3828023921370212,-8.327947012706304
0.07390106795794714,1.3842808261651471,-8.411385067383545
0.07451182058569876,1.3857583968125564,-8.494486145312
0.0751225732134504,1.3872354910314189,-8.57725309541333
0.07573332584120203,1.3887124700007583,-8.659689673552105
0.07634407846895366,1.3901896687268347,-8.741800516125311
0.07695483109670527,1.3916673957114125,-8.823591111180717
0.0775655837244569,1.3931459326884197,-8.905067767158116
0.07817633635220854,1.3946255344293628,-8.986237579351357
0.07878708897996017,1.3961064286176053,-9.067108394201586
0.07939784160771181,1.3975888157914793,-9.147688771536162
0.08000859423546343,1.3990728693559313,-9.227987944877324
0.08061934686321505,1.400558735662272,-9.308015779950042
0.08123009949096668,1.4020465341553476,-9.387782731525501
0.08184085211871832,1.4035363575872672,-9.46729979874343
0.08245160474646994,1.4050282722966363,-9.546578479060008
0.08306235737422157,1.4065223185520177,-9.625630720975053
0.08367311000197321,1.4080185109582042,-9.7044688756954
0.08428386262972484,1.4095168389236203,-9.783105647894706
0.08489461525747646,1.4110172671870813,-9.861554045735257
0.08550536788522808,1.412519736401864,-9.939827330316831
0.08611612051297972,1.4140241637749444,-10.017938964722115
0.08672687314073135,1.415530443759074,-10.09590256282788
0.08733762576848299,1.417038448795195,-10.173731838052014
0.08794837839623461,1.4185480301025435,-10.25144055220688
0.08855913102398623,1.4200590185137254,-10.329042464627486
0.08916988365173786,1.4215712253517887,-10.4065512817422
0.0897806362794895,1.423084443346357,-10.483980607251539
0.09039138890724112,1.4245984475856452,-10.561343893077527
0.09100214153499275,1.4261129965012052,-10.638654391240966
0.09161289416274439,1.4276278328820586,-10.715925106824043
0.09222364679049602,1.4291426849149138,-10.793168752164949
0.09283439941824764,1.4306572672470501,-10.870397702430129
0.09344515204599926,1.432171282068397,-10.94762395270319
0.0940559046737509,1.4336844202093688,-11.02485907672054
0.09466665730150253,1.435196362250982,-11.102114187379726
0.09527740992925417,1.4367067796437338,-11.179399899136754
0.09588816255700579,1.4382153358318175,-11.256726292402476
0.09649891518475741,1.4397216873792082,-11.334102880038495
0.09710966781250904,1.441225485094244,-11.411538576044933
0.09772042044026068,1.442726375149356,-11.489041666523347
0.09833117306801231,1.4442240001926407,-11.56661978299009
0.09894192569576393,1.445718000448135,-11.64427987810302
0.09955267832351557,1.4472080148016004,-11.722028203859903
0.10016343095126719,1.44869368186888,-11.799870292311018
0.10077418357901882,1.450174641043886,-11.877810938824837
0.10138493620677044,1.4516505335234193,-11.955854187931752
0.10199568883452208,1.4531210033061905,-12.034003321764223
0.10260644146227371,1.4545856981634964,-12.11226085109824
0.10321719409002535,1.4560442705791652,-12.19062850899724
0.10382794671777695,1.4574963786565418,-12.269107247044056
0.10443869934552859,1.4589416869904042,-12.347697234143451
0.10504945197328022,1.4603798675019128,-12.426397857863126
0.10566020460103186,1.4618106002347806,-12.505207728277536
0.10627095722878349,1.4632335741110736,-12.5841246842682
0.10688170985653511,1.464648487645235,-12.663145802224241
0.10749246248428675,1.4660550496149687,-12.74226740708561
0.10810321511203837,1.467452979687972,-12.821485085655565
0.10871396773979,1.4688420090034993,-12.900793702110615
0.10932472036754162,1.4702218807080245,-12.980187415622845
0.10993547299529326,1.4715923504443755,-13.059659700008371
0.11054622562304489,1.4729531867938848,-13.139203365307349
0.11115697825079653,1.4743041716712948,-13.218810581197001
0.11176773087854816,1.4756451006722586,-13.298472902133595
0.11237848350629977,1.4769757833734736,-13.37818129411706
0.1129892361340514,1.478296043585641,-13.45792616296461
0.11359998876180304,1.4796057195595123,-13.53769738398149
0.11421074138955467,1.4809046641455719,-13.617484332907958
0.11482149401730629,1.4821927449078294,-13.697275918026962
0.11543224664505793,1.4834698441925789,-13.777060613306169
0.11604299927280955,1.484735859152855,-13.856826492455237
0.11665375190056118,1.4859907017296239,-13.936561263771642
0.1172645045283128,1.4872342985907554,-14.016252305651895
0.11787525715606444,1.4884665910289427,-14.0958867026432
0.11848600978381607,1.4896875348198826,-14.17545128191108
0.1190967624115677,1.4908971000420475,-14.25493264999946
0.11970751503931934,1.4920952708595323,-14.334317229760764
0.12031826766707095,1.4932820452694708,-14.413591297335918
0.12092902029482258,1.4944574348156636,-14.492741019063544
0.12153977292257422,1.4956214642700512,-14.571752488203293
0.12215052555032585,1.4967741712837457,-14.650611761358844
0.12276127817807747,1.497915606009442,-14.729304894488287
0.1233720308058291,1.4990458306969385,-14.807817978394576
0.12398278343358073,1.500164919263722,-14.886137173591726
0.12459353606133236,1.501272956842391,-14.964248744445943
0.125204288689084,1.5023700393068884,-15.042139092493718
0.1258150413168356,1.5034562727794702,-15.119794788844997
0.12642579394458725,1.5045317731202676,-15.197202605585174
0.12703654657233887,1.505596665401468,-15.274349546088397
0.12764729920009052,1.5066510833679998,-15.351222874167707
0.12825805182784214,1.5076951688866589,-15.427810141984608
0.12886880445559376,1.5087290713855959,-15.504099216653294
0.1294795570833454,1.5097529472860682,-15.58007830547328
0.13009030971109703,1.5107669594283402,-15.655735979733098
0.13070106233884865,1.5117712764935511,-15.731061197034268
0.13131181496660027,1.5127660724234187,-15.806043322086134
0.13192256759435192,1.5137515258395189,-15.88067214593197
0.13253332022210354,1.5147278194638985,-15.954937903570087
0.1331440728498552,1.5156951395427458,-16.02883128993894
0.13375482547760678,1.5166536752747048,-16.102343474242932
0.13436557810535843,1.5176036182455117,-16.175466112599846
0.13497633073311005,1.518545161870417,-16.248191358995722
0.1355870833608617,1.5194785008459664,-16.320511874540188
0.13619783598861332,1.5204038306124712,-16.39242083501961
0.13680858861636494,1.5213213468285953,-16.46391193675315
0.13741934124411656,1.5222312448593502,-16.534979400755983
0.13803009387186818,1.5231337192786707,-16.60561797522893
0.13864084649961983,1.5240289633878052,-16.675822936388855
0.13925159912737145,1.524917168750542,-16.74559008766757
0.1398623517551231,1.5257985247463115,-16.814915757304203
0.14047310438287472,1.526673218142107,-16.883796794368656
0.14108385701062634,1.5275414326840622,-16.95223056325171
0.141694609638378,1.5284033487094866,-17.020214936664708
0.1423053622661296,1.529259142780058,-17.08774828719709
0.14291611489388123,1.530108987336803,-17.154829477480135
0.14352686752163288,1.530953050377414,-17.22145784901494
0.1441376201493845,1.5317914951563751,-17.287633209718585
0.14474837277713615,1.5326244799082722,-17.35335582025497
0.14535912540488774,1.5334521575946467,-17.41862637921096
0.14596987803263936,1.5342746756745673,-17.483446007188103
0.146580630660391,1.5350921758991414,-17.547816229879867
0.14719138328814263,1.5359047941299966,-17.611738960206566
0.14780213591589428,1.5367126601817882,-17.675216479583415
0.1484128885436459,1.537515897688623,-17.738251418399603
0.14902364117139752,1.5383146239943095,-17.800846735784937
0.14963439379914917,1.5391089500661737,-17.86300569874629
0.1502451464269008,1.5398989804322047,-17.924731860754086
0.15085589905465244,1.5406848131411859,-17.98602903985882
0.15146665168240406,1.5414665397453509,-18.046901296424792
0.15207740431015568,1.5422442453051766,-18.107352910558113
0.15268815693790733,1.543018008415689,-18.167388359316814
0.15329890956565892,1.5437879012537719,-18.2270122937821
0.15390966219341054,1.5445539896457816,-18.286229516074513
0.1545204148211622,1.5453163331547883,-18.345044956395512
0.1551311674489138,1.5460749851867088,-18.403463650174952
0.15574192007666546,1.546829993114511,-18.461490715401982
0.15635267270441708,1.5475813984196678,-18.519131330220596
0.1569634253321687,1.5483292368500088,-18.57639071085704
0.15757417795992035,1.5490735385930117,-18.63327408996275
0.15818493058767197,1.5498143284636094,-18.689786695434456
0.15879568321542362,1.550551626105562,-18.745933729786575
0.15940643584317524,1.551285446205357,-18.80172035013635
0.16001718847092686,1.5520157987176173,-18.857151648869273
0.1606279410986785,1.5527426891010125,-18.912232635039953
0.1612386937264301,1.5534661185635668,-18.966968216568038
0.16184944635418172,1.55418608431633,-19.021363183280016
0.16246019898193337,1.5549025798343223,-19.075422190846407
0.163070951609685,1.555615595123667,-19.129149745660303
0.16368170423743664,1.5563251169938512,-19.182550190697278
0.16429245686518826,1.5570311293340042,-19.235627692396264
0.16490320949293988,1.5577336133921482,-19.288386228592373
0.16551396212069153,1.5584325480563592,-19.340829577531327
0.16612471474844315,1.559127910136756,-19.392961307992866
0.1667354673761948,1.5598196746473458,-19.444784770538238
0.16734622000394642,1.5605078150866454,-19.496303089904348
0.16795697263169804,1.5611923037161461,-19.547519158551534
0.16856772525944969,1.5618731118356235,-19.598435631374272
0.16917847788720128,1.5625502100543747,-19.64905492157862
0.16978923051495293,1.5632235685574694,-19.699379197724124
0.17039998314270455,1.563893157366148,-19.749410381924754
0.17101073577045617,1.5645589465915504,-19.799150149199697
0.17162148839820782,1.5652209066809457,-19.848599927960723
0.17223224102595944,1.5658790086557342,-19.897760901617293
0.17284299365371106,1.5665332243405132,-19.946634011277823
0.1734537462814627,1.5671835265825236,-19.9952199595219
0.17406449890921433,1.5678298894608496,-20.043519215215728
0.17467525153696598,1.5684722884848321,-20.09153201933368
0.1752860041647176,1.5691107007811278,-20.13925839175517
0.17589675679246922,1.5697451052689675,-20.186698138993393
0.17650750942022086,1.5703754828231618,-20.23385086281587
0.17711826204797246,1.5710018164245036,-20.280715969709828
0.1777290146757241,1.571624091297222,-20.327292681145845
0.17833976730347573,1.5722422950332309,-20.373580044587754
0.17895051993122735,1.5728564177029254,-20.419576945198564
0.179561272558979,1.5734664519523915,-20.465282118183833
0.18017202518673062,1.5740723930868812,-20.510694161719137
0.18078277781448224,1.574674239140491,-20.555811550402126
0.18139353044223389,1.5752719909320447,-20.600632649168592
0.1820042830699855,1.5758656521071739,-20.645155727613112
0.18261503569773715,1.5764552291667213,-20.689378974651653
0.18322578832548878,1.5770407314815684,-20.733300513462293
0.1838365409532404,1.577622171294048,-20.776918416645405
0.18444729358099204,1.5781995637062127,-20.820230721531885
0.18505804620874364,1.5787729266551611,-20.863235445585552
0.18566879883649529,1.5793422808757618,-20.9059306018297
0.1862795514642469,1.5799076498511269,-20.948314214236348
0.18689030409199853,1.5804690597511895,-20.990384333017666
0.18750105671975018,1.5810265393598286,-21.032139049757642
0.1881118093475018,1.581580119990991,-21.07357651232177
0.18872256197525342,1.5821298353943059,-21.114694939487958
0.18933331460300507,1.582675721650689,-21.15549263523974
0.18994406723075669,1.5832178170585098,-21.195968002666287
0.19055481985850833,1.5837561620108864,-21.23611955741435
0.19116557248625995,1.5842907988646946,-21.275945940640508
0.19177632511401158,1.5848217718019268,-21.31544593141453
0.19238707774176322,1.5853491266840334,-21.354618458522683
0.19299783036951482,1.5858729108998915,-21.393462611630813
0.19360858299726647,1.586393173208098,-21.431977651760103
0.19421933562501809,1.5869099635742296,-21.470163021038537
0.1948300882527697,1.5874233330038077,-21.508018351688314
0.19544084088052135,1.5879333333716128,-21.545543474220246
0.19605159350827298,1.5884400172481126,-21.582738424796364
0.19666234613602462,1.588943437723655,-21.61960345174087
0.19727309876377624,1.5894436482311607,-21.656139021171153
0.19788385139152787,1.5899407023680183,-21.692345821726363
0.1984946040192795,1.590434653717869,-21.728224768380432
0.19910535664703113,1.5909255556729778,-21.763777005320122
0.19971610927478275,1.5914134612578787,-21.799003907881428
0.20032686190253438,1.5918984229549513,-21.833907083534687
0.200937614530286,1.592380492532601,-21.868488371915664
0.20154836715803764,1.592859720876672,-21.90274984390211
0.20215911978578927,1.5933361578257248,-21.936693799739007
0.20276987241354089,1.5938098520107857,-21.970322766219073
0.20338062504129253,1.5942808507001256,-22.003639492930084
0.20399137766904415,1.5947491996496679,-22.0366469475808
0.2046021302967958,1.5952149429595304,-22.069348310423607
0.20521288292454742,1.5956781229372083,-22.101746967794462
0.20582363555229904,1.5961387799679096,-22.13384650479286
0.2064343881800507,1.5965969523924437,-22.165650697128665
0.2070451408078023,1.5970526763931356,-22.197163502166013
0.2076558934355539,1.5975059858881115,-22.228389049196732
0.20826664606330555,1.5979569124343391,-22.259331628977524
0.20887739869105718,1.598405485139717,-22.28999568257178
