frequency,refractiveIndex,absorption
0.0006107526277516292,1.5165267349148812,0.00012172473658935505
0.0012215052555032584,1.5166358586498763,0.00048586352197317335
0.0018322578832548875,1.5168175327883062,0.0010893136916160816
0.002443010511006517,1.5170714597428483,0.001926916149979251
0.003053763138758146,1.5173972239732607,0.0029914733303003827
0.003664515766509775,1.517794293061606,0.0042737742224696245
0.004275268394261404,1.5182620190849008,0.0057626263547328775
0.004886021022013034,1.5187996402782376,0.007444894584505371
0.005496773649764663,1.5194062829798096,0.009305546524724003
0.006107526277516292,1.5200809638481887,0.011327704405075202
0.006718278905267922,1.520822592340875,0.013492703142455662
0.00732903153301955,1.5216299734423608,0.015780154372374774
0.00793978416077118,1.5225018106287185,0.018168016172560652
0.008550536788522809,1.5234367090555656,0.02063266819225773
0.009161289416274438,1.5244331789549708,0.023148991885048726
0.009772042044026067,1.5254896392270845,0.025690455530627966
0.010382794671777697,1.5266044212116334,0.02822920371981243
0.010993547299529326,1.5277757726243715,0.030736150969459478
0.011604299927280955,1.5290018616435743,0.03318107912739891
0.012215052555032585,1.5302807811317496,0.0355327382239534
0.012825805182784214,1.531610552978034,0.03775895042419482
0.013436557810535843,1.5329891325468394,0.039826716734194925
0.014047310438287471,1.5344144132189945,0.04170232611601638
0.0146580630660391,1.535884231011829,0.043351466667328906
0.015268815693790731,1.5373963692652635,0.044739338525073634
0.01587956832154236,1.538948563381521,0.04583076815592196
0.01649032094929399,1.5405385056065508,0.04659032370050152
0.017101073577045618,1.5421638498419818,0.04698243104310489
0.01771182620479725,1.5438222164767599,0.04697149028306153
0.018322578832548876,1.5455111972284983,0.04652199228922244
0.018933331460300507,1.5472283599847518,0.045598635023398545
0.019544084088052135,1.5489712536352838,0.04416643932367772
0.020154836715803762,1.5507374128866118,0.04219086384282985
0.020765589343555393,1.5525243630506727,0.03963791884166855
0.02137634197130702,1.5543296247998382,0.036474278540773515
0.021987094599058652,1.5561507188808386,0.03266739173887809
0.02259784722681028,1.5579851707804309,0.028185590409075485
0.02320859985456191,1.5598305153359626,0.022998195988165285
0.023819352482313542,1.5616843012841286,0.017075623078327006
0.02443010511006517,1.5635440957414684,0.010389480283496962
0.025040857737816797,1.5654074886101597,0.002912667907077324
0.025651610365568428,1.567272096902915,-0.005380527758013293
0.026262362993320056,1.5691355689807074,-0.01451434381225815
0.026873115621071687,1.570995588697201,-0.024511454064689134
0.027483868248823314,1.572849879443715,-0.03539288653476742
0.028094620876574942,1.5746962080886275,-0.04717794538878331
0.028705373504326573,1.5765323888050073,-0.05988413755196012
0.0293161261320782,1.5783562867804257,-0.07352710422888974
0.029926878759829835,1.5801658218027677,-0.08812055755631035
0.030537631387581463,1.5819589717158926,-0.10367622260304582
0.03114838401533309,1.5837337757391112,-0.12020378491952938
0.03175913664308472,1.5854883376443305,-0.13771084382848203
0.03236988927083635,1.5872208287849512,-0.1562028716341438
0.03298064189858798,1.5889294909705793,-0.17568317891371987
0.03359139452633961,1.5906126391817446,-0.19615288603850553
0.034202147154091235,1.5922686641190342,-0.21761090105584388
0.03481289978184286,1.5938960345811735,-0.24005390404500843
0.0354236524095945,1.595493299666887,-0.26347633804080534
0.036034405037346125,1.5970590907954998,-0.2878704066000756
0.03664515766509775,1.5985921235417297,-0.3132260780635967
0.03725591029284938,1.6000911992803089,-0.3395310965459124
0.037866662920601014,1.601555206636486,-0.3667709996626352
0.038477415548352635,1.6029831227389642,-0.39492914298130255
0.03908816817610427,1.604374014272151,-0.4239867311598409
0.039698920803855904,1.6057270383251485,-0.4539228557116974
0.040309673431607525,1.6070414430354536,-0.4847145393131154
0.04092042605935916,1.6083165680257754,-0.5163367865453722
0.04153117868711079,1.6095518446331079,-0.5487626409383101
0.04214193131486242,1.6107467959295232,-0.5819632481612776
0.04275268394261404,1.611901036535126,-0.6159079251808313
0.04336343657036568,1.6130142722237641,-0.6505642351857225
0.043974189198117304,1.6140862993231633,-0.685898068054171
0.04458494182586893,1.61511700391145,-0.7218737261199117
0.04519569445362056,1.6161063608128037,-0.7584540149725199
0.045806447081372194,1.6170544323955824,-0.7956003390078029
0.04641719970912382,1.617961367176861,-0.8332728014271854
0.04702795233687545,1.6188273982378953,-0.8714303083682392
0.047638704964627084,1.619652841455704,-0.9100306768323696
0.048249457592378704,1.6204380935563365,-0.9490307460639691
0.04886021022013034,1.6211836299961733,-0.9883864920203927
0.049470962847881966,1.6218900026778817,-1.0280531445640282
0.050081715475633594,1.6225578375083214,-1.067985306996788
0.05069246810338522,1.623187831805935,-1.108137077552039
0.051303220731136856,1.6237807515658218,-1.148462172450098
0.05191397335888848,1.6243374285907948,-1.1889140501229634
0.05252472598664011,1.6248587574972873,-1.2294460362085005
0.053135478614391746,1.6253456926050853,-1.2700114489153032
0.05374623124214337,1.6257992447202867,-1.3105637243587673
0.054356983869895,1.6262204778209106,-1.3510565414727933
0.05496773649764663,1.6266105056549733,-1.391443946102676
0.05557848912539826,1.6269704882607527,-1.43168047389309
0.056189241753149884,1.6273016284192638,-1.4717212715883243
0.05679999438090152,1.6276051680488468,-1.5115222163718491
0.057410747008653146,1.6278823845519457,-1.5510400328798173
0.05802149963640477,1.6281345871239925,-1.590232407533926
0.0586322522641564,1.6283631130343952,-1.6290580998491306
0.059243004891908035,1.6285693238894299,-1.6674770503854128
0.05985375751965967,1.6287546018868237,-1.7054504850222796
0.06046451014741129,1.6289203460715849,-1.7429410152524138
0.061075262775162925,1.629067968602575,-1.7799127342014325
0.06168601540291455,1.6291988910390294,-1.816331308098285
0.06229676803066618,1.629314540656082,-1.8521640629344502
0.0629075206584178,1.6294163467981253,-1.8873800660670361
0.06351827328616944,1.629505737278584,-1.9219502025368507
0.06412902591392107,1.6295841348343818,-1.9558472458896934
0.0647397785416727,1.6296529536432036,-1.9890459233055993
0.06535053116942433,1.62971359591129,-2.021522974858497
0.06596128379717596,1.629767448539261,-2.0532572067463435
0.0665720364249276,1.62981587987311,-2.0842295383504053
0.06718278905267921,1.6298602365473347,-2.1144230429980246
0.06779354168043085,1.6299018404266734,-2.1438229823251693
0.06840429430818247,1.6299419856527921,-2.172416834149802
0.06901504693593409,1.6299819358017842,-2.2001943137882964
0.06962579956368573,1.6300229211582036,-2.227147388763432
0.07023655219143736,1.6300661361107913,-2.253270286875076
0.070847304819189,1.6301127366750163,-2.2785594976173558
0.07145805744694061,1.630163838146931,-2.3030137669524806
0.07206881007469225,1.6302205128927598,-2.3266340854636463
0.07267956270244387,1.6302837882780803,-2.3494236699337896
0.0732903153301955,1.630354644740338,-2.371387938411529
0.07390106795794714,1.630434014007867,-2.3925344788495035
0.07451182058569876,1.630522777468428,-2.412873011413484
0.0751225732134504,1.6306217646897925,-2.432415344586685
0.07573332584120203,1.6307317520946105,-2.4511753252049506
0.07634407846895366,1.6308534617913792,-2.46916878258484
0.07695483109670527,1.6309875605630497,-2.486413466916933
0.0775655837244569,1.6311346590142721,-2.502928982124161
0.07817633635220854,1.6312953108780952,-2.518736713393318
0.07878708897996017,1.631470012482345,-2.5338597496134536
0.07939784160771181,1.631659202375684,-2.5483228009661727
0.08000859423546343,1.6318632611128088,-2.562152111932772
0.08061934686321505,1.632082511197946,-2.575375369996953
0.08123009949096668,1.6323172171853284,-2.5880216103377487
0.08184085211871832,1.6325675859349436,-2.6001211168213496
0.08245160474646994,1.6328337670214486,-2.611705319613654
0.08306235737422157,1.6331158532937053,-2.6228066897477995
0.08367311000197321,1.6334138815819732,-2.633458630992682
0.08428386262972484,1.6337278335494614,-2.643695369376231
0.08489461525747646,1.6340576366843869,-2.653551840730871
0.08550536788522808,1.6344031654285018,-2.6630635766291073
0.08611612051297972,1.6347642424374234,-2.672266589091084
0.08672687314073135,1.6351406399679678,-2.6811972544432052
0.08733762576848299,1.6355320813871048,-2.689892196716763
0.08794837839623461,1.6359382427969877,-2.698388170971554
0.08855913102398623,1.6363587547700473,-2.7067219469337713
0.08916988365173786,1.636793204187904,-2.714930193333427
0.0897806362794895,1.6372411361775487,-2.7230493633251074
0.09039138890724112,1.6377020561379452,-2.7311155813703225
0.09100214153499275,1.638175431850015,-2.739164531953012
0.09161289416274439,1.6386606956626995,-2.747231350494878
0.09222364679049602,1.639157246747655,-2.7553505168233583
0.09283439941824764,1.6396644534149294,-2.7635557515397746
0.09344515204599926,1.6401816554818631,-2.771879915617587
0.0940559046737509,1.640708166687359,-2.7803549135523946
0.09466665730150253,1.6412432771436056,-2.7890116003662477
0.09527740992925417,1.6417862558172343,-2.7978796927568075
0.09588816255700579,1.6423363530319828,-2.8069876846614163
0.09649891518475741,1.6428928029848666,-2.8163627674909573
0.09710966781250904,1.6434548262679791,-2.826030755267649
0.09772042044026068,1.6440216323880836,-2.836016014882076
0.09833117306801231,1.6445924222762724,-2.8463414016644024
0.09894192569576393,1.6451663907801426,-2.857028200442857
0.09955267832351557,1.6457427291310578,-2.868096072242409
0.10016343095126719,1.6463206273792934,-2.879563006752388
0.10077418357901882,1.6468992767900452,-2.891445280673745
0.10138493620677044,1.647477872193567,-2.9037574220283626
0.10199568883452208,1.648055614282911,-2.9165121804964818
0.10260644146227371,1.64863171185307,-2.9297205038212097
0.10321719409002535,1.649205383975597,-2.9433915202996945
0.10382794671777695,1.6497758621030776,-2.957532527357534
0.10443869934552859,1.6503423920982325,-2.9721489861808474
0.10504945197328022,1.6509042361826753,-2.987244522358855
0.10566020460103186,1.6514606748007523,-3.0028209324723556
0.10627095722878349,1.6520110083943111,-3.018878196536357
0.10688170985653511,1.6525545590845037,-3.035414496193675
0.10749246248428675,1.6530906722571876,-3.052426238531359
0.10810321511203837,1.6536187180488668,-3.0699080853756784
0.10871396773979,1.6541380927304827,-3.087852987904618
0.10932472036754162,1.6546482199867356,-3.106252226400833
0.10993547299529326,1.655148552089064,-3.1250954549492684
0.11054622562304489,1.6556385709607055,-3.144370750874395
0.11115697825079653,1.6561177891327503,-3.1640646686934786
0.11176773087854816,1.656585750590372,-3.1841622983525086
0.11237848350629977,1.657042031508867,-3.204647327500899
0.1129892361340514,1.6574862408794468,-3.2255021075475834
0.11359998876180304,1.6579180210251292,-3.246707723234168
0.11421074138955467,1.6583370480073643,-3.2682440654532963
0.11482149401730629,1.6587430319244152,-3.2900899070313487
0.11543224664505793,1.6591357171027945,-3.312222981190666
0.11604299927280955,1.659514882183419,-3.334620062399749
0.11665375190056118,1.6598803401043671,-3.357257049318725
0.1172645045283128,1.660231937982494,-3.380109049543
0.11787525715606444,1.6605695568963295,-3.4031504658470957
0.11848600978381607,1.660893111573056,-3.4263550836300682
0.1190967624115677,1.6612025499824674,-3.449696159265365
0.11970751503931934,1.661497852841147,-3.473146509058119
0.12031826766707095,1.6617790330302218,-3.4966785985180002
0.12092902029482258,1.6620461349303064,-3.5202646316552078
0.12153977292257422,1.6622992336773696,-3.5438766400160358
0.12215052555032585,1.66253843434344,-3.567486571177596
0.12276127817807747,1.6627638710461872,-3.591066376426066
0.1233720308058291,1.6629757059915729,-3.614588097352712
0.12398278343358073,1.6631741284538173,-3.6380239511075465
0.12459353606133236,1.6633593536970661,-3.6613464140585323
0.125204288689084,1.663531621843159,-3.684528303616113
0.1258150413168356,1.6636911966900645,-3.7075428579857674
0.12642579394458725,1.6638383644854213,-3.7303638136317185
0.12703654657233887,1.6639734326598397,-3.752965480233609
0.12764729920009052,1.6640967285244608,-3.7753228129391734
0.12825805182784214,1.664208597937425,-3.7974114817190565
0.12886880445559376,1.664309403943725,-3.819207937651085
0.1294795570833454,1.6643995253930592,-3.8406894759608243
0.13009030971109703,1.6644793555401132,-3.8618342956705574
0.13070106233884865,1.6645493006317393,-3.882621555712449
0.13131181496660027,1.6646097784854068,-3.903031427378147
0.13192256759435192,1.6646612170632353,-3.923045142988409
0.13253332022210354,1.664704053045803,-3.942645040681871
0.1331440728498552,1.664738730409897,-3.9618146052307157
0.13375482547760678,1.6647656990142052,-3.980538504808294
0.13436557810535843,1.6647854131968656,-3.9988026236457475
0.13497633073311005,1.6647983303886897,-4.016594090524546
0.1355870833608617,1.6648049097457212,-4.033901303070703
0.13619783598861332,1.664805610804675,-4.050713947822202
0.13680858861636494,1.6648008921646698,-4.067023016061713
0.13741934124411656,1.6647912101984974,-4.0828208154117664
0.13803009387186818,1.6647770177965946,-4.098100977207411
0.13864084649961983,1.6647587631466099,-4.1128584596712106
0.13925159912737145,1.6647368885514542,-4.127089546927317
0.1398623517551231,1.664711829288411,-4.140791843904217
0.14047310438287472,1.664684012511859,-4.153964267187054
0.14108385701062634,1.6646538562018813,-4.166607031889287
0.141694609638378,1.6646217681609383,-4.178721634629806
0.1423053622661296,1.6645881450605864,-4.19031083270493
0.14291611489388123,1.6645533715400522,-4.201378619561674
0.14352686752163288,1.664517819358312,-4.2119301966837925
0.1441376201493845,1.664481846601119,-4.221971942015418
0.14474837277713615,1.6644457969443074,-4.231511375051583
0.14535912540488774,1.6644099989744676,-4.240557118738476
0.14596987803263936,1.6643747655679297,-4.249118858332035
0.146580630660391,1.6643403933288463,-4.257207297371055
0.14719138328814263,1.6643071620869525,-4.264834110928389
0.14780213591589428,1.6642753344554322,-4.272011896312268
0.1484128885436459,1.664245155449132,-4.278754121395481
0.14902364117139752,1.6642168521632141,-4.285075070752529
0.14963439379914917,1.664190633512148,-4.290989789796889
0.1502451464269008,1.6641666900287848,-4.296514027109236
0.15085589905465244,1.6641451937231122,-4.301664175153277
0.15146665168240406,1.6641262980000708,-4.306457209583195
0.15207740431015568,1.6641101376357357,-4.310910627342798
0.15268815693790733,1.6640968288109348,-4.315042383764816
0.15329890956565892,1.6640864692012738,-4.318870828877983
0.15390966219341054,1.6640791381223758,-4.3224146431300134
0.1545204148211622,1.6640748967289778,-4.325692772738966
0.1551311674489138,1.6640737882664607,-4.328724364876912
0.15574192007666546,1.66407583837314,-4.331528702901687
0.15635267270441708,1.664081055431636,-4.334125141838933
0.1569634253321687,1.6640894309674525,-4.336533044320294
0.15757417795992035,1.664100940092799,-4.338771717182714
0.15818493058767197,1.6641155419935512,-4.34086034892543
0.15879568321542362,1.6641331804572301,-4.342817948221187
0.15940643584317524,1.6641537844396637,-4.344663283671496
0.16001718847092686,1.664177268668006,-4.346414824991945
0.1606279410986785,1.6642035342776729,-4.348090685806254
0.1612386937264301,1.6642324694806627,-4.349708568223366
0.16184944635418172,1.664263950262715,-4.351285709362527
0.16246019898193337,1.664297841106657,-4.352838829985619
0.163070951609685,1.6643339957392695,-4.354384085388199
0.16368170423743664,1.6643722578989701,-4.355937018689899
0.16429245686518826,1.664412462121543,-4.357512516659815
0.16490320949293988,1.664454434541198,-4.359124768198167
0.16551396212069153,1.6644979937041413,-4.360787225590778
0.16612471474844315,1.6645429513919134,-4.362512568640865
0.1667354673761948,1.6645891134517077,-4.36431267176947
0.16734622000394642,1.664636280630945,-4.366198574170131
0.16795697263169804,1.6646842494133303,-4.3681804530907
0.16856772525944969,1.6647328128537524,-4.370267600300256
0.16917847788720128,1.6647817614093194,-4.372468401796243
0.16978923051495293,1.6648308837639727,-4.374790320785676
0.17039998314270455,1.6648799676440906,-4.377239883971769
0.17101073577045617,1.6649288006226493,-4.379822671159576
0.17162148839820782,1.664977170909473,-4.382543308187888
0.17223224102595944,1.6650248681253024,-4.385405463176932
0.17284299365371106,1.6650716840573971,-4.3884118460796655
0.1734537462814627,1.6651174133945514,-4.391564211501992
0.17406449890921433,1.6651618544394489,-4.394863364757474
0.17467525153696598,1.665204809796424,-4.398309171103096
0.1752860041647176,1.6652460870327934,-4.4019005680961945
0.17589675679246922,1.6652854993120214,-4.405635581004263
0.17650750942022086,1.6653228659971262,-4.409511341184331
0.17711826204797246,1.6653580132228345,-4.413524107343687
0.1777290146757241,1.665390774435131,-4.417669289585181
0.17833976730347573,1.665420990896958,-4.421941476127213
0.17895051993122735,1.6654485121589846,-4.4263344625862375
0.179561272558979,1.6654731964944425,-4.430841283697547
0.18017202518673062,1.6654949112972166,-4.435454247346222
0.18078277781448224,1.6655135334424602,-4.440164970771722
0.18139353044223389,1.6655289496091834,-4.444964418803618
0.1820042830699855,1.665541056564344,-4.449842943982629
0.18261503569773715,1.6655497614081576,-4.454790328413537
0.18322578832548878,1.6655549817804316,-4.459795827193971
0.1838365409532404,1.6655566460278675,-4.464848213259931
0.18444729358099204,1.6655546933324346,-4.4699358234815225
0.18505804620874364,1.6655490738009748,-4.4750466058479805
0.18566879883649529,1.6655397485163923,-4.480168167571206
0.1862795514642469,1.6655266895508531,-4.485287823937267
0.18689030409199853,1.6655098799415549,-4.4903926477404745
0.18750105671975018,1.6654893136297257,-4.495469519126432
0.1881118093475018,1.6654649953636291,-4.500505175675189
0.18872256197525342,1.665436940566451,-4.505486262555549
0.18933331460300507,1.6654051751700292,-4.5103993825846755
0.18994406723075669,1.6653697354155093,-4.515231146024918
0.19055481985850833,1.665330667622062,-4.519968219956364
0.19116557248625995,1.6652880279249018,-4.524597377066497
0.19177632511401158,1.6652418819839312,-4.529105543696421
0.19238707774176322,1.6651923046643726,-4.533479846995419
0.19299783036951482,1.665139379690859,-4.537707661032813
0.19360858299726647,1.665083199276481,-4.541776651724244
0.19421933562501809,1.6650238637283654,-4.545674820433855
0.1948300882527697,1.6649614810313869,-4.5493905461198345
0.19544084088052135,1.664896166411688,-4.552912625896396
0.19605159350827298,1.6648280418816874,-4.556230313890129
0.19666234613602462,1.6647572357683127,-4.559333358277753
0.19727309876377624,1.664683882226206,-4.562212036398717
0.19788385139152787,1.6646081207376826,-4.564857187837938
0.1984946040192795,1.6645300956012257,-4.567260245391256
0.19910535664703113,1.6644499554103078,-4.569413263823958
0.19971610927478275,1.6643678525243641,-4.5713089463452
0.20032686190253438,1.6642839425336857,-4.572940668729691
0.200937614530286,1.6641983837200542,-4.574302501022422
0.20154836715803764,1.6641113365148752,-4.575389226774555
0.20215911978578927,1.6640229629565964,-4.576196359762937
0.20276987241354089,1.663933426149132,-4.5767201581566965
0.20338062504129253,1.6638428897230246,-4.576957636101533
0.20399137766904415,1.6637515173010182,-4.576906572700903
0.2046021302967958,1.6636594719696967,-4.576565518382009
0.20521288292454742,1.663566915758796,-4.575933798641185
0.20582363555229904,1.6634740091297548,-4.575011515174326
0.2064343881800507,1.663380910475007,-4.573799544404448
0.2070451408078023,1.6632877756295137,-4.572299533425404
0.2076558934355539,1.6631947573959034,-4.570513893392774
0.20826664606330555,1.6631020050846022,-4.568445790396132
0.20887739869105718,1.6630096640702294,-4.56609913385805
