frequency,refractiveIndex,absorption
0.0006107526277516292,1.5119802381465748,-0.00010031142901629446
0.0012215052555032584,1.5121026244819606,-0.00040209684676489204
0.0018322578832548875,1.5123063895182516,-0.0009079067020828835
0.002443010511006517,1.512591215555677,-0.001621981942744032
0.003053763138758146,1.5129566589798702,-0.0025502393517551824
0.003664515766509775,1.5134021514198577,-0.003700251091317163
0.004275268394261404,1.5139270012264545,-0.005081218526835731
0.004886021022013034,1.5145303952635443,-0.006703940423056671
0.005496773649764663,1.5152114010030449,-0.008580775623237162
0.006107526277516292,1.515968968913164,-0.010725600340333433
0.006718278905267922,1.5168019351281155,-0.013153760206239295
0.00732903153301955,1.5177090243865434,-0.015882017241082198
0.00793978416077118,1.5186888532247635,-0.01892849191932476
0.008550536788522809,1.5197399334102375,-0.022312600523332934
0.009161289416274438,1.520860675599992,-0.026054987987402335
0.009772042044026067,1.5220493932082155,-0.03017745644644504
0.010382794671777697,1.5233043064668799,-0.034702889714132615
0.010993547299529326,1.5246235466631266,-0.0396551739237725
0.011604299927280955,1.5260051605369738,-0.04505911457390429
0.012215052555032585,1.527447114823103,-0.050940350227083105
0.012825805182784214,1.5289473009205996,-0.05732526311693369
0.013436557810535843,1.5305035396747875,-0.06424088692380737
0.014047310438287471,1.5321135862558473,-0.07171481198411407
0.0146580630660391,1.5337751351191453,-0.07977508820270876
0.015268815693790731,1.5354858250329269,-0.08845012594114923
0.01587956832154236,1.5372432441594814,-0.09776859515798897
0.01649032094929399,1.5390449351765998,-0.10775932308017952
0.017101073577045618,1.5408884004266483,-0.11845119068725771
0.01771182620479725,1.542771107081321,-0.12987302829236883
0.018322578832548876,1.5446904923108051,-0.14205351050635123
0.018933331460300507,1.546643968446526,-0.15502105087329693
0.019544084088052135,1.548628928127439,-0.1688036964678102
0.020154836715803762,1.5506427494203368,-0.18342902274591114
0.020765589343555393,1.5526828009050526,-0.19892402894318992
0.02137634197130702,1.5547464467161365,-0.21531503431522453
0.021987094599058652,1.5568310515328592,-0.23262757551609492
0.02259784722681028,1.5589339855098034,-0.2508863054121272
0.02320859985456191,1.5610526291407938,-0.2701148936280423
0.023819352482313542,1.5631843780490113,-0.29033592912265715
0.02443010511006517,1.5653266476965628,-0.31157082509099415
0.025040857737816797,1.5674768780068895,-0.33383972648843285
0.025651610365568428,1.5696325378935976,-0.35716142047010957
0.026262362993320056,1.5717911296894485,-0.38155325003706875
0.026873115621071687,1.5739501934693552,-0.4070310311763381
0.027483868248823314,1.5761073112612543,-0.4336089737776645
0.028094620876574942,1.5782601111388979,-0.4612996066044732
0.028705373504326573,1.580406271190532,-0.4901137065898167
0.0293161261320782,1.5825435233575356,-0.5200602327199747
0.029926878759829835,1.584669657137233,-0.5511462647591101
0.030537631387581463,1.5867825231438395,-0.5833769470594385
0.03114838401533309,1.5888800365219136,-0.616755437687916
0.03175913664308472,1.5909601802065136,-0.6512828630883906
0.03236988927083635,1.593021008024377,-0.6869582784844799
0.03298064189858798,1.5950606476306441,-0.7237786342116932
0.03359139452633961,1.597077303275632,-0.7617387481517397
0.034202147154091235,1.5990692583964807,-0.8008312844228035
0.03481289978184286,1.601034878028555,-0.8410467384614176
0.0354236524095945,1.6029726110317766,-0.8823734286103758
0.036034405037346125,1.604880992127305,-0.9247974943066478
0.03664515766509775,1.6067586437403603,-0.9683029009399531
0.03725591029284938,1.6086042776450917,-1.0128714514309234
0.037866662920601014,1.6104166964081228,-1.058482804552615
0.038477415548352635,1.6121947946274264,-1.1051144999959002
0.03908816817610427,1.613937559963935,-1.1527419901539828
0.039698920803855904,1.615644073963588,-1.2013386785759843
0.040309673431607525,1.6173135126680502,-1.2508759650151413
0.04092042605935916,1.6189451470129477,-1.3013232969708193
0.04153117868711079,1.6205383430129103,-1.3526482275996945
0.04214193131486242,1.6220925617333397,-1.404816479845552
0.04275268394261404,1.6236073590494466,-1.4577920166137188
0.04336343657036568,1.6250823851936147,-1.5115371167918326
0.043974189198117304,1.6265173840928449,-1.566012456896436
0.04458494182586893,1.6279121924986135,-1.6211771981020424
0.04519569445362056,1.6292667389120759,-1.67698907838854
0.045806447081372194,1.6305810423081986,-1.7334045095237482
0.04641719970912382,1.631855210662995,-1.7903786785773215
0.04702795233687545,1.633089439288587,-1.8478656536475466
0.047638704964627084,1.6342840089814654,-1.9058184934641005
0.048249457592378704,1.6354392839897745,-1.964189360518176
0.04886021022013034,1.6365557098060952,-2.0229296373553245
0.049470962847881966,1.6376338107926034,-2.081990045658715
0.050081715475633594,1.6386741876459712,-2.1413207677385357
0.05069246810338522,1.6396775147098566,-2.200871570037024
0.051303220731136856,1.6406445371431981,-2.2605919282508746
0.05191397335888848,1.6415760679528788,-2.3204311536704134
0.05252472598664011,1.6424729848997377,-2.380338520329963
0.053135478614391746,1.6433362272870258,-2.4402633925650625
0.05374623124214337,1.6441667926408428,-2.500155352570489
0.054356983869895,1.6449657332922138,-2.559964327556545
0.05496773649764663,1.6457341528705591,-2.6196407161035
0.05557848912539826,1.6464732027185602,-2.6791355133209955
0.056189241753149884,1.6471840782384768,-2.7384004344222963
0.05679999438090152,1.647868015179917,-2.7973880363348105
0.057410747008653146,1.648526285879288,-2.8560518369726338
0.05802149963640477,1.649160195460888,-2.91434643181157
0.0586322522641564,1.6497710780097052,-2.972227607413824
0.059243004891908035,1.6503602927258987,-3.0296524515639276
0.05985375751965967,1.6509292200707113,-3.08657945968889
0.06046451014741129,1.65147925791352,-3.142968637250236
0.061075262775162925,1.6520118176895382,-3.1987815978082708
0.06168601540291455,1.652528320577462,-3.253981656475224
0.06229676803066618,1.6530301937062035,-3.3085339184876803
0.0629075206584178,1.6535188663995104,-3.362405362646264
0.06351827328616944,1.6539957664672098,-3.4155649193851287
0.06412902591392107,1.6544623165513612,-3.4679835432514263
0.0647397785416727,1.6549199305354407,-3.519634279591957
0.06535053116942433,1.6553700100244408,-3.570492325260079
0.06596128379717596,1.6558139409033363,-3.6205350831751164
0.0665720364249276,1.656253089981228,-3.6697422105831596
0.06718278905267921,1.656688801728074,-3.718095660885919
0.06779354168043085,1.6571223951106706,-3.7655797189230906
0.06840429430818247,1.6575551605342058,-3.8121810296107537
0.06901504693593409,1.6579883568954301,-3.8578886198574853
0.06962579956368573,1.6584232087531352,-3.90269391369809
0.07023655219143736,1.658860903621349,-3.946590740603617
0.070847304819189,1.659302589390378,-3.989575336943492
0.07145805744694061,1.659749371880358,-4.031646340597536
0.07206881007469225,1.6602023125318985,-4.072804778730716
0.07267956270244387,1.6606624262378191,-4.113054048765516
0.0732903153301955,1.6611306793198517,-4.152399892604246
0.07390106795794714,1.6616079876537586,-4.190850364172977
0.07451182058569876,1.662095214945969,-4.228415790378077
0.0751225732134504,1.6625931711645823,-4.2651087255856375
0.07573332584120203,1.6631026111271359,-4.300943899752184
0.07634407846895366,1.6636242332472373,-4.335938160356306
0.07695483109670527,1.6641586784418574,-4.370110408295584
0.0775655837244569,1.664706529200585,-4.403481527937533
0.07817633635220854,1.6652683088178872,-4.436074311526697
0.07878708897996017,1.665844480789007,-4.4679133781702385
0.07939784160771181,1.6664354483697053,-4.499025087643698
0.08000859423546343,1.6670415542997263,-4.529437449272302
0.08061934686321505,1.6676630806894424,-4.559180026163163
0.08123009949096668,1.6683002490686722,-4.588283835078858
0.08184085211871832,1.6689532205963855,-4.616781242257086
0.08245160474646994,1.6696220964294617,-4.644705855497584
0.08306235737422157,1.6703069182483326,-4.6720924128504375
0.08367311000197321,1.6710076689369346,-4.6989766682515866
0.08428386262972484,1.6717242734138977,-4.7253952744652645
0.08489461525747646,1.6724565996115754,-4.751385663701675
0.08550536788522808,1.6732044595991091,-4.77698592628712
0.08611612051297972,1.673967610845186,-4.8022346877749005
0.08672687314073135,1.6747457576159899,-4.827170984886866
0.08733762576848299,1.6755385525032163,-4.85183414068542
0.08794837839623461,1.6763455980768216,-4.876263639375996
0.08855913102398623,1.6771664486567783,-4.900499001143281
0.08916988365173786,1.6780006121976927,-4.924579657425232
0.0897806362794895,1.6788475522799502,-4.9485448270269226
0.09039138890724112,1.679706690200639,-4.972433393474663
0.09100214153499275,1.6805774071573145,-4.996283784003843
0.09161289416274439,1.681459046517344,-5.02013385057199
0.09222364679049602,1.6823509161653694,-5.044020753277395
0.09283439941824764,1.6832522909212675,-5.067980846555923
0.09344515204599926,1.6841624150207457,-5.0920495685181
0.0940559046737509,1.6850805046505986,-5.116261333776171
0.09466665730150253,1.68600575053057,-5.1406494300978025
0.09527740992925417,1.6869373205336329,-5.165245919206748
0.09588816255700579,1.6878743623364525,-5.190081542037756
0.09649891518475741,1.6888160060918433,-5.215185628731809
0.09710966781250904,1.6897613671149454,-5.2405860136430835
0.09772042044026068,1.6907095485749644,-5.266308955607434
0.09833117306801231,1.691659644184336,-5.292379063703628
0.09894192569576393,1.6926107408773365,-5.318819228715672
0.09955267832351557,1.6935619214702253,-5.345650560485353
0.10016343095126719,1.6945122672952095,-5.3728923313199815
0.10077418357901882,1.6954608608006885,-5.400561925599145
0.10138493620677044,1.6964067881104568,-5.4286747956998
0.10199568883452208,1.6973491415347586,-5.457244424337684
0.10260644146227371,1.6982870220263513,-5.486282293398065
0.10321719409002535,1.6992195415750473,-5.515797859306089
0.10382794671777695,1.700145825534435,-5.5457985349645345
0.10443869934552859,1.7010650148748445,-5.576289678261642
0.10504945197328022,1.7019762683569801,-5.607274587131488
0.10566020460103186,1.7028787646208672,-5.6387545011237945
0.10627095722878349,1.7037717041853084,-5.670728609420713
0.10688170985653511,1.7046543113532193,-5.703194065216009
0.10749246248428675,1.7055258360187464,-5.736146006348889
0.10810321511203837,1.7063855553723684,-5.7695775820676545
0.10871396773979,1.707232775500589,-5.803479985777408
0.10932472036754162,1.7080668328772843,-5.837842493606887
0.10993547299529326,1.7088870957440787,-5.87265250861198
0.11054622562304489,1.7096929653775719,-5.90789561041876
0.11115697825079653,1.7104838772416837,-5.9435556100876115
0.11176773087854816,1.711259302023653,-5.979614609972886
0.11237848350629977,1.7120187465527745,-6.016053068331236
0.1129892361340514,1.7127617546012253,-6.052849868424025
0.11359998876180304,1.7134879075667764,-6.089982391845499
0.11421074138955467,1.7141968250375494,-6.127426595798298
0.11482149401730629,1.7148881652393457,-6.165157094028772
0.11543224664505793,1.7155616253663648,-6.203147241128262
0.11604299927280955,1.7162169417966373,-6.241369219894247
0.11665375190056118,1.7168538901936188,-6.279794131446403
0.1172645045283128,1.7174722854958882,-6.318392087783311
0.11787525715606444,1.7180719817970673,-6.357132306463958
0.11848600978381607,1.718652872118474,-6.3959832070956235
0.1190967624115677,1.7192148880772349,-6.434912509307458
0.11970751503931934,1.719757999452819,-6.473887331893031
0.12031826766707095,1.7202822136552849,-6.5128742928001255
0.12092902029482258,1.7207875750986743,-6.551839609653415
0.12153977292257422,1.7212741644832257,-6.590749200496575
0.12215052555032585,1.721742097990283,-6.629568784443916
0.12276127817807747,1.7221915263939305,-6.668263981938361
0.1233720308058291,1.7226226340935331,-6.70680041431725
0.12398278343358073,1.7230356380715375,-6.745143802394949
0.12459353606133236,1.7234307867809653,-6.78326006377737
0.125204288689084,1.723808358967144,-6.821115408635053
0.1258150413168356,1.724168662428341,-6.858676433665658
0.12642579394458725,1.7245120327199863,-6.895910213991781
0.12703654657233887,1.7248388318072512,-6.932784392744917
0.12764729920009052,1.7251494466707826,-6.969267268102519
0.12825805182784214,1.725444287870415,-7.005327877549435
0.12886880445559376,1.7257237880716716,-7.040936079156485
0.1294795570833454,1.725988400539893,-7.07606262966953
0.13009030971109703,1.7262385976067602,-7.110679259225007
0.13070106233884865,1.7264748691140124,-7.144758742512539
0.13131181496660027,1.7266977208390097,-7.178274966225462
0.13192256759435192,1.7269076729068737,-7.211202992645146
0.13253332022210354,1.7271052581937125,-7.243519119226223
0.1331440728498552,1.7272910207254766,-7.275200934057067
0.13375482547760678,1.7274655140768322,-7.306227367086732
0.13436557810535843,1.7276292997743887,-7.336578737020385
0.13497633073311005,1.7277829457084264,-7.366236793802928
0.1355870833608617,1.7279270245572809,-7.395184756617546
0.13619783598861332,1.7280621122282775,-7.423407347344522
0.13680858861636494,1.7281887863190895,-7.450890819438155
0.13741934124411656,1.7283076246031945,-7.47762298218794
0.13803009387186818,1.7284192035429762,-7.503593220351011
0.13864084649961983,1.7285240968339046,-7.52879250914708
0.13925159912737145,1.7286228739830198,-7.55321342462678
0.1398623517551231,1.7287160989248218,-7.576850149432079
0.14047310438287472,1.7288043286775585,-7.599698473980762
0.14108385701062634,1.7288881120426214,-7.621755793120138
0.141694609638378,1.728967988349723,-7.643021098304987
0.1423053622661296,1.7290444862503151,-7.663494965365256
0.14291611489388123,1.7291181225614882,-7.683179537945093
0.14352686752163288,1.7291894011625382,-7.702078506697072
0.1441376201493845,1.7292588119461139,-7.720197084333167
0.14474837277713615,1.7293268298257305,-7.737541976642313
0.14535912540488774,1.729393913801299,-7.754121349589729
0.14596987803263936,1.7294605060840649,-7.769944792629312
0.146580630660391,1.7295270312822801,-7.785023278363772
0.14719138328814263,1.7295938956486734,-7.79936911869928
0.14780213591589428,1.7296614863906876,-7.812995917646249
0.1484128885436459,1.729730171044214,-7.825918520931081
0.14902364117139752,1.729800296911468,-7.838152962582403
0.14963439379914917,1.7298721905633783,-7.849716408674008
0.1502451464269008,1.729946157406818,-7.8606270983991955
0.15085589905465244,1.730022481316735,-7.8709042826702165
0.15146665168240406,1.730101424333126,-7.880568160434603
0.15207740431015568,1.730183226422652,-7.8896398129054885
0.15268815693790733,1.7302681053045008,-7.898141135910289
0.15329890956565892,1.730356256339935,-7.906094770566049
0.15390966219341054,1.7304478524848967,-7.913524032487994
0.1545204148211622,1.7305430443047398,-7.9204528397499985
0.1551311674489138,1.7306419600501939,-7.926905639807187
0.15574192007666546,1.7307447057933323,-7.932907335602813
0.15635267270441708,1.7308513656223368,-7.938483211075141
0.1569634253321687,1.7309620018936134,-7.9436588562840535
0.15757417795992035,1.7310766555397143,-7.94846009237806
0.15818493058767197,1.731195346431401,-7.952912896617177
0.15879568321542362,1.7313180737920397,-7.957043327673063
0.15940643584317524,1.731444816662424,-7.960877451417882
0.16001718847092686,1.7315755344139863,-7.964441267416443
0.1606279410986785,1.731710167308264,-7.967760636332217
0.1612386937264301,1.7318486371003885,-7.9708612084509864
0.16184944635418172,1.731990847684261,-7.973768353526307
0.16246019898193337,1.7321366857770029,-7.976507092140168
0.163070951609685,1.7322860216401672,-7.979102028773954
0.16368170423743664,1.732438709835166,-7.981577286770357
0.16429245686518826,1.7325945900102437,-7.983956445368178
0.16490320949293988,1.7327534877163269,-7.986262478978467
0.16551396212069153,1.7329152152489928,-7.988517698865486
0.16612471474844315,1.733079572513771,-7.990743697389318
0.1667354673761948,1.7332463479119569,-7.992961294953597
0.16734622000394642,1.7334153192441,-7.995190489796463
0.16795697263169804,1.7335862546282903,-7.997450410753388
0.16856772525944969,1.7337589134303866,-7.999759273105906
0.16917847788720128,1.733933047203312,-8.002134337626646
0.16978923051495293,1.7341084006325618,-8.004591872914578
0.17039998314270455,1.734284712485063,-8.007147121107467
0.17101073577045617,1.734461716558618,-8.00981426704377
0.17162148839820782,1.7346391426290844,-8.012606410939643
0.17223224102595944,1.7348167173926214,-8.015535544628527
0.17284299365371106,1.7349941654002645,-8.018612531408712
0.1734537462814627,1.7351712099822505,-8.021847089518925
0.17406449890921433,1.7353475741594777,-8.025247779267671
0.17467525153696598,1.735522981539668,-8.028821993812926
0.1752860041647176,1.735697157195797,-8.032575953589596
0.17589675679246922,1.7358698285244791,-8.036514704366441
0.17650750942022086,1.7360407260820863,-8.040642118900303
0.17711826204797246,1.736209584396486,-8.044960902148352
0.1777290146757241,1.7363761427523563,-8.049472599987297
0.17833976730347573,1.7365401459482046,-8.054177611374445
0.17895051993122735,1.7367013450232602,-8.05907520388135
0.179561272558979,1.7368594979525949,-8.06416353251366
0.18017202518673062,1.7370143703089125,-8.069439661726783
0.18078277781448224,1.737165735889562,-8.074899590536734
0.18139353044223389,1.7373133773075262,-8.080538280611538
0.1820042830699855,1.737457086545149,-8.086349687230062
0.18261503569773715,1.7375966654696517,-8.092326792975816
0.18322578832548878,1.7377319263094593,-8.098461644036977
0.1838365409532404,1.7378626920906268,-8.10474538896818
0.18444729358099204,1.7379887970327113,-8.111168319768266
0.18505804620874364,1.7381100869035961,-8.117719915122377
0.18566879883649529,1.7382264193329104,-8.124388885648386
0.1862795514642469,1.7383376640838057,-8.131163220986922
0.18689030409199853,1.7384437032830045,-8.138030238567524
0.18750105671975018,1.738544431609131,-8.144976633883163
0.1881118093475018,1.7386397564395035,-8.151988532097027
0.18872256197525342,1.7387295979556523,-8.159051540811008
0.18933331460300507,1.738813889207967,-8.16615080381717
0.18994406723075669,1.7388925761400031,-8.173271055655436
0.19055481985850833,1.7389656175730628,-8.180396676799864
0.19116557248625995,1.739032985151804,-8.187511749297057
0.19177632511401158,1.7390946632517161,-8.194600112678456
0.19238707774176322,1.7391506488494086,-8.201645419972241
0.19299783036951482,1.7392009513567606,-8.208631193640622
0.19360858299726647,1.7392455924200507,-8.21554088127155
0.19421933562501809,1.7392846056852977,-8.222357910856584
0.1948300882527697,1.7393180365310943,-8.229065745489056
0.19544084088052135,1.7393459417703128,-8.235647937322678
0.19605159350827298,1.739368389322124,-8.242088180631459
0.19666234613602462,1.7393854578558188,-8.248370363820628
0.19727309876377624,1.7393972364080008,-8.254478620240686
0.19788385139152787,1.7394038239747622,-8.26039737766095
0.1984946040192795,1.7394053290804887,-8.266111406269372
0.19910535664703113,1.7394018693249955,-8.271605865066777
0.19971610927478275,1.7393935709107233,-8.276866346532161
0.20032686190253438,1.7393805681517471,-8.281878919443145
0.200937614530286,1.7393630029663867,-8.286630169741054
0.20154836715803764,1.7393410243551952,-8.29110723933837
0.20215911978578927,1.739314787866165,-8.295297862773362
0.20276987241354089,1.7392844550489401,-8.299190401623104
0.20338062504129253,1.739250192899843,-8.302773876598598
0.20399137766904415,1.7392121732995638,-8.306037997244632
0.2046021302967958,1.7391705724452613,-8.308973189186727
0.20521288292454742,1.7391255702789046,-8.31157061886332
0.20582363555229904,1.7390773499135892,-8.313822215700613
0.2064343881800507,1.7390260970595806,-8.315720691686678
0.2070451408078023,1.738971999451814,-8.317259558316747
0.2076558934355539,1.738915246280489,-8.31843314088429
0.20826664606330555,1.7388560276264513,-8.319236590104099
0.20887739869105718,1.7387945339029156,-8.319665891060886
0.20948815131880882,1.7387309553051298,-8.319717869483545
