Time_abs/ps, Signal/nA
  2370.000,    -0.123235
  2370.050,    -0.119430
  2370.100,    -0.100155
  2370.150,    -0.082017
  2370.200,    -0.072053
  2370.250,    -0.050556
  2370.300,    -0.036971
  2370.350,    -0.019414
  2370.400,    -0.008652
  2370.450,     0.007504
  2370.500,     0.011505
  2370.550,     0.014768
  2370.600,     0.023286
  2370.650,     0.030787
  2370.700,     0.043698
  2370.750,     0.053639
  2370.800,     0.074757
  2370.850,     0.093943
  2370.900,     0.120231
  2370.950,     0.138364
  2371.000,     0.151172
  2371.050,     0.176111
  2371.100,     0.189030
  2371.150,     0.212862
  2371.200,     0.237721
  2371.250,     0.252738
  2371.300,     0.268125
  2371.350,     0.281164
  2371.400,     0.300464
  2371.450,     0.314159
  2371.500,     0.325336
  2371.550,     0.334893
  2371.600,     0.352248
  2371.650,     0.363496
  2371.700,     0.372941
  2371.750,     0.385643
  2371.800,     0.409846
  2371.850,     0.427885
  2371.900,     0.437040
  2371.950,     0.458616
  2372.000,     0.471038
  2372.050,     0.499411
  2372.100,     0.507281
  2372.150,     0.520980
  2372.200,     0.539140
  2372.250,     0.559059
  2372.300,     0.583990
  2372.350,     0.609627
  2372.400,     0.635610
  2372.450,     0.664343
  2372.500,     0.698466
  2372.550,     0.743430
  2372.600,     0.793316
  2372.650,     0.852231
  2372.700,     0.909079
  2372.750,     0.965150
  2372.800,     1.039969
  2372.850,     1.102003
  2372.900,     1.184590
  2372.950,     1.271002
  2373.000,     1.354642
  2373.050,     1.440371
  2373.100,     1.515379
  2373.150,     1.596728
  2373.200,     1.681626
  2373.250,     1.764745
  2373.300,     1.836675
  2373.350,     1.897599
  2373.400,     1.968914
  2373.450,     2.019288
  2373.500,     2.067944
  2373.550,     2.107757
  2373.600,     2.126760
  2373.650,     2.139877
  2373.700,     2.135282
  2373.750,     2.120135
  2373.800,     2.071336
  2373.850,     2.001710
  2373.900,     1.904405
  2373.950,     1.775215
  2374.000,     1.621451
  2374.050,     1.419113
  2374.100,     1.175551
  2374.150,     0.875806
  2374.200,     0.528443
  2374.250,     0.107008
  2374.300,    -0.369962
  2374.350,    -0.922188
  2374.400,    -1.567299
  2374.450,    -2.289704
  2374.500,    -3.085176
  2374.550,    -3.996529
  2374.600,    -4.989196
  2374.650,    -6.096958
  2374.700,    -7.312913
  2374.750,    -8.645432
  2374.800,   -10.098080
  2374.850,   -11.664692
  2374.900,   -13.381876
  2374.950,   -15.233442
  2375.000,   -17.252488
  2375.050,   -19.435095
  2375.100,   -21.793630
  2375.150,   -24.371565
  2375.200,   -27.151425
  2375.250,   -30.153168
  2375.300,   -33.381721
  2375.350,   -36.822225
  2375.400,   -40.460417
  2375.450,   -44.218389
  2375.500,   -48.005878
  2375.550,   -51.696416
  2375.600,   -55.080707
  2375.650,   -57.914236
  2375.700,   -59.868627
  2375.750,   -60.566970
  2375.800,   -59.589262
  2375.850,   -56.468489
  2375.900,   -50.750429
  2375.950,   -42.004154
  2376.000,   -29.927912
  2376.050,   -14.319273
  2376.100,     4.815184
  2376.150,    27.246329
  2376.200,    52.519191
  2376.250,    79.858728
  2376.300,   108.296623
  2376.350,   136.603418
  2376.400,   163.397683
  2376.450,   187.183954
  2376.500,   206.531969
  2376.550,   220.110083
  2376.600,   226.850303
  2376.650,   226.029115
  2376.700,   217.392628
  2376.750,   201.152435
  2376.800,   177.983811
  2376.850,   148.977902
  2376.900,   115.549926
  2376.950,    79.260558
  2377.000,    41.784939
  2377.050,     4.721672
  2377.100,   -30.448340
  2377.150,   -62.435715
  2377.200,   -90.216170
  2377.250,  -113.060127
  2377.300,  -130.498018
  2377.350,  -142.368433
  2377.400,  -148.814030
  2377.450,  -150.172526
  2377.500,  -147.033660
  2377.550,  -140.104753
  2377.600,  -130.185887
  2377.650,  -118.161959
  2377.700,  -104.844788
  2377.750,   -91.031516
  2377.800,   -77.419035
  2377.850,   -64.589952
  2377.900,   -53.025476
  2377.950,   -43.012013
  2378.000,   -34.683867
  2378.050,   -28.059015
  2378.100,   -23.025660
  2378.150,   -19.315631
  2378.201,   -16.621140
  2378.251,   -14.582016
  2378.301,   -12.847723
  2378.351,   -11.051074
  2378.401,    -8.956904
  2378.451,    -6.383454
  2378.501,    -3.264748
  2378.551,     0.377066
  2378.601,     4.385666
  2378.651,     8.590442
  2378.701,    12.744187
  2378.751,    16.576526
  2378.801,    19.860149
  2378.851,    22.409923
  2378.901,    24.113693
  2378.951,    24.939835
  2379.001,    24.937515
  2379.051,    24.211470
  2379.101,    22.958143
  2379.151,    21.372083
  2379.201,    19.677343
  2379.251,    18.080194
  2379.301,    16.727857
  2379.351,    15.733630
  2379.401,    15.127358
  2379.451,    14.888565
  2379.501,    14.912773
  2379.551,    15.067046
  2379.601,    15.167485
  2379.651,    15.050335
  2379.701,    14.567313
  2379.751,    13.615292
  2379.801,    12.107118
  2379.851,    10.069917
  2379.901,     7.553767
  2379.951,     4.687583
  2380.001,     1.670534
  2380.051,    -1.345580
  2380.101,    -4.144719
  2380.151,    -6.555569
  2380.201,    -8.441008
  2380.251,    -9.715484
  2380.301,   -10.340062
  2380.351,   -10.336483
  2380.401,    -9.772116
  2380.451,    -8.745014
  2380.501,    -7.362975
  2380.551,    -5.744375
  2380.601,    -3.989034
  2380.651,    -2.175537
  2380.701,    -0.371556
  2380.751,     1.400373
  2380.801,     3.099554
  2380.851,     4.742162
  2380.901,     6.317449
  2380.951,     7.792797
  2381.001,     9.150755
  2381.051,    10.344669
  2381.101,    11.286862
  2381.151,    11.927468
  2381.201,    12.191860
  2381.251,    11.999747
  2381.301,    11.328251
  2381.351,    10.162343
  2381.401,     8.500254
  2381.451,     6.412644
  2381.501,     3.972577
  2381.551,     1.268181
  2381.601,    -1.564946
  2381.651,    -4.413139
  2381.701,    -7.144177
  2381.751,    -9.640122
  2381.801,   -11.775727
  2381.851,   -13.484520
  2381.901,   -14.681917
  2381.951,   -15.315499
  2382.001,   -15.363513
  2382.051,   -14.805275
  2382.101,   -13.661553
  2382.151,   -11.986482
  2382.201,    -9.832828
  2382.251,    -7.294939
  2382.301,    -4.492065
  2382.351,    -1.542211
  2382.401,     1.397358
  2382.451,     4.214625
  2382.501,     6.754062
  2382.551,     8.889560
  2382.601,    10.535225
  2382.651,    11.634796
  2382.701,    12.152797
  2382.751,    12.123564
  2382.801,    11.550068
  2382.851,    10.550563
  2382.901,     9.213805
  2382.951,     7.647459
  2383.001,     5.954720
  2383.051,     4.252774
  2383.101,     2.583600
  2383.151,     1.051379
  2383.201,    -0.335696
  2383.251,    -1.551578
  2383.301,    -2.615754
  2383.351,    -3.540711
  2383.401,    -4.359376
  2383.451,    -5.077246
  2383.501,    -5.736426
  2383.551,    -6.304057
  2383.601,    -6.755998
  2383.651,    -7.115234
  2383.701,    -7.325203
  2383.751,    -7.346006
  2383.801,    -7.156047
  2383.851,    -6.715921
  2383.901,    -6.011303
  2383.951,    -5.081869
  2384.001,    -3.920825
  2384.051,    -2.582226
  2384.101,    -1.139767
  2384.151,     0.349711
  2384.201,     1.809615
  2384.251,     3.146124
  2384.301,     4.307114
  2384.351,     5.247444
  2384.401,     5.919711
  2384.451,     6.304181
  2384.501,     6.413574
  2384.551,     6.273283
  2384.601,     5.928505
  2384.651,     5.437062
  2384.701,     4.847422
  2384.751,     4.238170
  2384.801,     3.663697
  2384.851,     3.162638
  2384.901,     2.785838
  2384.951,     2.547905
  2385.001,     2.418424
  2385.051,     2.382089
  2385.101,     2.396767
  2385.151,     2.389277
  2385.201,     2.290301
  2385.251,     2.024541
  2385.301,     1.555719
  2385.351,     0.824358
  2385.401,    -0.179609
  2385.451,    -1.415945
  2385.501,    -2.829349
  2385.551,    -4.331240
  2385.601,    -5.811140
  2385.651,    -7.126944
  2385.701,    -8.149550
  2385.751,    -8.747538
  2385.801,    -8.832128
  2385.851,    -8.351871
  2385.901,    -7.270867
  2385.951,    -5.626632
  2386.001,    -3.505328
  2386.051,    -1.017468
  2386.101,     1.692979
  2386.151,     4.441438
  2386.201,     7.064320
  2386.251,     9.417263
  2386.301,    11.363302
  2386.351,    12.784938
  2386.401,    13.641663
  2386.451,    13.901243
  2386.501,    13.583319
  2386.551,    12.738094
  2386.601,    11.429483
  2386.651,     9.783176
  2386.701,     7.888831
  2386.751,     5.841237
  2386.801,     3.737219
  2386.851,     1.666468
  2386.901,    -0.320770
  2386.951,    -2.166987
  2387.001,    -3.823879
  2387.051,    -5.284046
  2387.101,    -6.542153
  2387.151,    -7.607175
  2387.201,    -8.458718
  2387.251,    -9.132471
  2387.301,    -9.588310
  2387.351,    -9.836582
  2387.401,    -9.848372
  2387.451,    -9.625952
  2387.501,    -9.160445
  2387.551,    -8.425916
  2387.601,    -7.401112
  2387.651,    -6.098711
  2387.701,    -4.495518
  2387.751,    -2.647765
  2387.801,    -0.593573
  2387.851,     1.583850
  2387.901,     3.810127
  2387.951,     5.948514
  2388.001,     7.914948
  2388.051,     9.576586
  2388.101,    10.806001
  2388.151,    11.524691
  2388.201,    11.664821
  2388.251,    11.221163
  2388.301,    10.213378
  2388.351,     8.688736
  2388.401,     6.773362
  2388.451,     4.606770
  2388.501,     2.327383
  2388.551,     0.122402
  2388.601,    -1.867510
  2388.651,    -3.524056
  2388.701,    -4.765890
  2388.751,    -5.523226
  2388.801,    -5.833886
  2388.851,    -5.745025
  2388.901,    -5.349421
  2388.951,    -4.750987
  2389.001,    -4.091873
  2389.051,    -3.440347
  2389.101,    -2.921289
  2389.151,    -2.583370
  2389.201,    -2.438657
  2389.251,    -2.476614
  2389.301,    -2.628218
  2389.351,    -2.836909
  2389.401,    -3.000571
  2389.451,    -3.053314
  2389.501,    -2.921652
  2389.551,    -2.560563
  2389.601,    -1.939229
  2389.651,    -1.080864
  2389.701,    -0.046138
  2389.751,     1.107953
  2389.801,     2.301478
  2389.851,     3.437881
  2389.901,     4.430720
  2389.951,     5.242755
  2390.001,     5.794657
  2390.051,     6.082957
  2390.101,     6.089045
  2390.151,     5.849790
  2390.201,     5.416586
  2390.251,     4.821517
  2390.301,     4.140180
  2390.351,     3.426653
  2390.401,     2.703671
  2390.451,     2.007126
  2390.501,     1.334179
  2390.551,     0.664819
  2390.601,     0.006023
  2390.651,    -0.705798
  2390.701,    -1.502326
  2390.751,    -2.365254
  2390.801,    -3.339503
  2390.851,    -4.380778
  2390.901,    -5.446851
  2390.951,    -6.484242
  2391.001,    -7.422808
  2391.051,    -8.152646
  2391.101,    -8.610178
  2391.151,    -8.703971
  2391.201,    -8.368354
  2391.251,    -7.578001
  2391.301,    -6.338685
  2391.351,    -4.697501
  2391.401,    -2.702149
  2391.451,    -0.464680
  2391.501,     1.869995
  2391.551,     4.171722
  2391.601,     6.295886
  2391.651,     8.129518
  2391.701,     9.531539
  2391.751,    10.453011
  2391.801,    10.831954
  2391.851,    10.690402
  2391.901,    10.067949
  2391.951,     9.024928
  2392.001,     7.674575
  2392.051,     6.118499
  2392.101,     4.462782
  2392.151,     2.821280
  2392.201,     1.258569
  2392.251,    -0.169925
  2392.301,    -1.455195
  2392.351,    -2.571393
  2392.401,    -3.567330
  2392.451,    -4.447770
  2392.501,    -5.263659
  2392.551,    -6.021144
  2392.601,    -6.730114
  2392.651,    -7.364497
  2392.701,    -7.888327
  2392.751,    -8.241419
  2392.801,    -8.370389
  2392.851,    -8.194335
  2392.901,    -7.659314
  2392.951,    -6.737016
  2393.001,    -5.400727
  2393.051,    -3.717179
  2393.101,    -1.754443
  2393.151,     0.407075
  2393.201,     2.614247
  2393.251,     4.729295
  2393.301,     6.601012
  2393.351,     8.134644
  2393.401,     9.200589
  2393.451,     9.749191
  2393.501,     9.757848
  2393.551,     9.259258
  2393.601,     8.324432
  2393.651,     7.050093
  2393.701,     5.547613
  2393.751,     3.932352
  2393.801,     2.346487
  2393.851,     0.877079
  2393.901,    -0.377133
  2393.951,    -1.365559
  2394.001,    -2.082489
  2394.051,    -2.527171
  2394.101,    -2.744002
  2394.151,    -2.760723
  2394.201,    -2.665938
  2394.251,    -2.520028
  2394.301,    -2.378307
  2394.351,    -2.289500
  2394.401,    -2.302374
  2394.451,    -2.426905
  2394.501,    -2.644126
  2394.551,    -2.934818
  2394.602,    -3.255631
  2394.652,    -3.575806
  2394.702,    -3.803721
  2394.752,    -3.921219
  2394.802,    -3.869824
  2394.852,    -3.614298
  2394.902,    -3.155801
  2394.952,    -2.508959
  2395.002,    -1.671424
  2395.052,    -0.708183
  2395.102,     0.351242
  2395.152,     1.419004
  2395.202,     2.460809
  2395.252,     3.435239
  2395.302,     4.268797
  2395.352,     4.953626
  2395.402,     5.451214
  2395.452,     5.753470
  2395.502,     5.883592
  2395.552,     5.819472
  2395.602,     5.608128
  2395.652,     5.250233
  2395.702,     4.760385
  2395.752,     4.172651
  2395.802,     3.471562
  2395.852,     2.682435
  2395.902,     1.803030
  2395.952,     0.829908
  2396.002,    -0.195285
  2396.052,    -1.284572
  2396.102,    -2.393671
  2396.152,    -3.516295
  2396.202,    -4.599742
  2396.252,    -5.593116
  2396.302,    -6.448049
  2396.352,    -7.126361
  2396.402,    -7.575411
  2396.452,    -7.766125
  2396.502,    -7.667613
  2396.552,    -7.274529
  2396.602,    -6.581261
  2396.652,    -5.607480
  2396.702,    -4.405791
  2396.752,    -2.982510
  2396.802,    -1.435877
  2396.852,     0.193580
  2396.902,     1.830723
  2396.952,     3.439513
  2397.002,     4.941920
  2397.052,     6.290619
  2397.102,     7.412246
  2397.152,     8.292146
  2397.202,     8.911652
  2397.252,     9.216838
  2397.302,     9.202966
  2397.352,     8.878866
  2397.402,     8.230288
  2397.452,     7.277510
  2397.502,     6.062931
  2397.552,     4.611034
  2397.602,     2.975778
  2397.652,     1.243854
  2397.702,    -0.532941
  2397.752,    -2.255558
  2397.802,    -3.842481
  2397.852,    -5.213103
  2397.902,    -6.304215
  2397.952,    -7.062044
  2398.002,    -7.456960
  2398.052,    -7.498704
  2398.102,    -7.184094
  2398.152,    -6.547964
  2398.202,    -5.652282
  2398.252,    -4.569598
  2398.302,    -3.343322
  2398.352,    -2.048526
  2398.402,    -0.758388
  2398.452,     0.476305
  2398.502,     1.592621
  2398.552,     2.579738
  2398.602,     3.407387
  2398.652,     4.071945
  2398.702,     4.560342
  2398.752,     4.861082
  2398.802,     5.018289
  2398.852,     5.036668
  2398.902,     4.937344
  2398.952,     4.728165
  2399.002,     4.453894
  2399.052,     4.113648
  2399.102,     3.725576
  2399.152,     3.314788
  2399.202,     2.875777
  2399.252,     2.413482
  2399.302,     1.947893
  2399.352,     1.452466
  2399.402,     0.943908
  2399.452,     0.408665
  2399.502,    -0.142157
  2399.552,    -0.696579
  2399.602,    -1.247311
  2399.652,    -1.794780
  2399.702,    -2.290368
  2399.752,    -2.724016
  2399.802,    -3.080629
  2399.852,    -3.331000
  2399.902,    -3.488600
  2399.952,    -3.533520
  2400.002,    -3.486500
  2400.052,    -3.348518
  2400.102,    -3.145319
  2400.152,    -2.900834
  2400.202,    -2.611824
  2400.252,    -2.326857
  2400.302,    -2.039489
  2400.352,    -1.773841
  2400.402,    -1.513220
  2400.452,    -1.250115
  2400.502,    -0.965165
  2400.552,    -0.671715
  2400.602,    -0.317577
  2400.652,     0.100105
  2400.702,     0.565204
  2400.752,     1.101029
  2400.802,     1.689351
  2400.852,     2.291368
  2400.902,     2.889596
  2400.952,     3.445899
  2401.002,     3.911005
  2401.052,     4.261268
  2401.102,     4.442466
  2401.152,     4.449245
  2401.202,     4.258889
  2401.252,     3.871194
  2401.302,     3.297558
  2401.352,     2.576131
  2401.402,     1.757245
  2401.452,     0.887244
  2401.502,     0.007581
  2401.552,    -0.837724
  2401.602,    -1.591542
  2401.652,    -2.218111
  2401.702,    -2.705873
  2401.752,    -3.018275
  2401.802,    -3.167114
  2401.852,    -3.140269
  2401.902,    -2.941575
  2401.952,    -2.598730
  2402.002,    -2.106386
  2402.052,    -1.496191
  2402.102,    -0.785128
  2402.152,     0.019503
  2402.202,     0.867473
  2402.252,     1.760000
  2402.302,     2.638178
  2402.352,     3.473834
  2402.402,     4.223846
  2402.452,     4.849496
  2402.502,     5.294227
  2402.552,     5.528590
  2402.602,     5.521894
  2402.652,     5.279857
  2402.702,     4.775203
  2402.752,     4.038933
  2402.802,     3.091901
  2402.852,     1.968746
  2402.902,     0.717062
  2402.952,    -0.583317
  2403.002,    -1.876313
  2403.052,    -3.106833
  2403.102,    -4.209696
  2403.152,    -5.123588
  2403.202,    -5.842915
  2403.252,    -6.296197
  2403.302,    -6.523457
  2403.352,    -6.484910
  2403.402,    -6.223121
  2403.452,    -5.760472
  2403.502,    -5.126951
  2403.552,    -4.383021
  2403.602,    -3.563873
  2403.652,    -2.733851
  2403.702,    -1.907741
  2403.752,    -1.122624
  2403.802,    -0.420571
  2403.852,     0.201181
  2403.902,     0.751305
  2403.952,     1.210464
  2404.002,     1.603853
  2404.052,     1.940117
  2404.102,     2.235007
  2404.152,     2.491801
  2404.202,     2.722527
  2404.252,     2.919622
  2404.302,     3.077866
  2404.352,     3.175872
  2404.402,     3.204266
  2404.452,     3.138162
  2404.502,     2.970863
  2404.552,     2.704802
  2404.602,     2.346046
  2404.652,     1.881528
  2404.702,     1.344120
  2404.752,     0.760615
  2404.802,     0.155909
  2404.852,    -0.436001
  2404.902,    -0.982509
  2404.952,    -1.462217
  2405.002,    -1.869497
  2405.052,    -2.190389
  2405.102,    -2.399629
  2405.152,    -2.534614
  2405.202,    -2.586293
  2405.252,    -2.588126
  2405.302,    -2.537133
  2405.352,    -2.465445
  2405.402,    -2.391467
  2405.452,    -2.301648
  2405.502,    -2.221280
  2405.552,    -2.129560
  2405.602,    -2.030289
  2405.652,    -1.892130
  2405.702,    -1.718220
  2405.752,    -1.478958
  2405.802,    -1.142099
  2405.852,    -0.714065
  2405.902,    -0.196533
  2405.952,     0.415652
  2406.002,     1.112848
  2406.052,     1.866086
  2406.102,     2.657848
  2406.152,     3.426207
  2406.202,     4.157870
  2406.252,     4.823298
  2406.302,     5.372242
  2406.352,     5.745236
  2406.402,     5.945614
  2406.452,     5.943128
  2406.502,     5.717907
  2406.552,     5.256056
  2406.602,     4.591802
  2406.652,     3.725067
  2406.702,     2.705042
  2406.752,     1.552414
  2406.802,     0.345915
  2406.852,    -0.873804
  2406.902,    -2.042702
  2406.952,    -3.089920
  2407.002,    -3.952967
  2407.052,    -4.565381
  2407.102,    -4.925904
  2407.152,    -4.985352
  2407.202,    -4.753732
  2407.252,    -4.243094
  2407.302,    -3.466996
  2407.352,    -2.480654
  2407.402,    -1.353514
  2407.452,    -0.153478
  2407.502,     1.085349
  2407.552,     2.273883
  2407.602,     3.364185
  2407.652,     4.293501
  2407.702,     5.042089
  2407.752,     5.582356
  2407.802,     5.924529
  2407.852,     6.040130
  2407.902,     5.967057
  2407.952,     5.723563
  2408.002,     5.323516
  2408.052,     4.800085
  2408.102,     4.166737
  2408.152,     3.465071
  2408.202,     2.691917
  2408.252,     1.873463
  2408.302,     1.017856
  2408.352,     0.123692
  2408.402,    -0.796263
  2408.452,    -1.712002
  2408.502,    -2.628655
  2408.552,    -3.508249
  2408.602,    -4.325291
  2408.652,    -5.063034
  2408.702,    -5.661305
  2408.752,    -6.100119
  2408.802,    -6.356935
  2408.852,    -6.413526
  2408.902,    -6.262505
  2408.952,    -5.900925
  2409.002,    -5.334145
  2409.052,    -4.595026
  2409.102,    -3.747795
  2409.152,    -2.829965
  2409.202,    -1.871029
  2409.252,    -0.952343
  2409.302,    -0.099227
  2409.352,     0.628862
  2409.402,     1.215252
  2409.452,     1.646357
  2409.502,     1.917066
  2409.552,     2.040127
  2409.602,     2.058657
  2409.652,     1.980085
  2409.702,     1.884283
  2409.752,     1.786148
  2409.802,     1.711050
  2409.852,     1.691928
  2409.902,     1.735163
