Time_abs/ps, Signal/nA
  2370.000,     0.555661
  2370.050,     0.477815
  2370.100,     0.393718
  2370.150,     0.313009
  2370.200,     0.235054
  2370.250,     0.156052
  2370.300,     0.074752
  2370.350,     0.004907
  2370.400,    -0.057611
  2370.450,    -0.109679
  2370.500,    -0.154890
  2370.550,    -0.188224
  2370.600,    -0.204941
  2370.650,    -0.214508
  2370.700,    -0.230655
  2370.750,    -0.233743
  2370.800,    -0.223275
  2370.850,    -0.212591
  2370.900,    -0.198590
  2370.950,    -0.182261
  2371.000,    -0.170271
  2371.050,    -0.157238
  2371.100,    -0.143435
  2371.150,    -0.125743
  2371.200,    -0.114308
  2371.250,    -0.098929
  2371.300,    -0.081177
  2371.350,    -0.071836
  2371.400,    -0.056526
  2371.450,    -0.040947
  2371.500,    -0.018024
  2371.550,    -0.014472
  2371.600,     0.006672
  2371.650,     0.029263
  2371.700,     0.033124
  2371.750,     0.052464
  2371.800,     0.074998
  2371.850,     0.101325
  2371.900,     0.110717
  2371.950,     0.120123
  2372.000,     0.127120
  2372.050,     0.145960
  2372.100,     0.155701
  2372.150,     0.171722
  2372.200,     0.190072
  2372.250,     0.206847
  2372.300,     0.219572
  2372.350,     0.233596
  2372.400,     0.250963
  2372.450,     0.277816
  2372.500,     0.289383
  2372.550,     0.307162
  2372.600,     0.307393
  2372.650,     0.328777
  2372.700,     0.341556
  2372.750,     0.365997
  2372.800,     0.379366
  2372.850,     0.406305
  2372.900,     0.431553
  2372.950,     0.445891
  2373.000,     0.465799
  2373.050,     0.495811
  2373.100,     0.526844
  2373.150,     0.564011
  2373.200,     0.610186
  2373.250,     0.654531
  2373.300,     0.704173
  2373.350,     0.770032
  2373.400,     0.819961
  2373.450,     0.886453
  2373.500,     0.959257
  2373.550,     1.033529
  2373.600,     1.106645
  2373.650,     1.181931
  2373.700,     1.262995
  2373.750,     1.356506
  2373.800,     1.432777
  2373.850,     1.512866
  2373.900,     1.601155
  2373.950,     1.671813
  2374.000,     1.752361
  2374.050,     1.812716
  2374.100,     1.867405
  2374.150,     1.921625
  2374.200,     1.964993
  2374.250,     1.995351
  2374.300,     2.009313
  2374.350,     2.014472
  2374.400,     2.013361
  2374.450,     1.957317
  2374.500,     1.901509
  2374.550,     1.816804
  2374.600,     1.710539
  2374.650,     1.558152
  2374.700,     1.370381
  2374.750,     1.137517
  2374.800,     0.864209
  2374.850,     0.541372
  2374.900,     0.154567
  2374.950,    -0.300692
  2375.000,    -0.818611
  2375.050,    -1.410471
  2375.100,    -2.077622
  2375.150,    -2.841624
  2375.200,    -3.686151
  2375.250,    -4.630695
  2375.300,    -5.676961
  2375.350,    -6.825725
  2375.400,    -8.100362
  2375.450,    -9.486650
  2375.500,   -11.010313
  2375.550,   -12.661480
  2375.600,   -14.457702
  2375.650,   -16.424066
  2375.700,   -18.552001
  2375.750,   -20.874302
  2375.800,   -23.382080
  2375.850,   -26.107028
  2375.900,   -29.045171
  2375.950,   -32.195148
  2376.000,   -35.513867
  2376.050,   -38.985206
  2376.100,   -42.538790
  2376.150,   -46.069729
  2376.200,   -49.428584
  2376.250,   -52.428553
  2376.300,   -54.840311
  2376.350,   -56.363055
  2376.400,   -56.670879
  2376.450,   -55.423705
  2376.500,   -52.241269
  2376.550,   -46.797300
  2376.600,   -38.805881
  2376.650,   -28.041155
  2376.700,   -14.420678
  2376.750,     1.985247
  2376.800,    20.940978
  2376.850,    42.076041
  2376.900,    64.785500
  2376.950,    88.312805
  2377.000,   111.776450
  2377.050,   134.192332
  2377.100,   154.519176
  2377.150,   171.740895
  2377.200,   184.900216
  2377.250,   193.201332
  2377.300,   196.050151
  2377.350,   193.133434
  2377.400,   184.397112
  2377.450,   170.095690
  2377.500,   150.756128
  2377.550,   127.144156
  2377.600,   100.246227
  2377.650,    71.115237
  2377.700,    40.878371
  2377.750,    10.640985
  2377.800,   -18.551051
  2377.850,   -45.737862
  2377.900,   -70.094140
  2377.950,   -90.979709
  2378.000,  -107.933573
  2378.050,  -120.684609
  2378.100,  -129.132403
  2378.150,  -133.400457
  2378.201,  -133.749206
  2378.251,  -130.639280
  2378.301,  -124.590354
  2378.351,  -116.191613
  2378.401,  -106.133166
  2378.451,   -95.023939
  2378.501,   -83.472922
  2378.551,   -72.007023
  2378.601,   -61.067930
  2378.651,   -50.969374
  2378.701,   -41.935060
  2378.751,   -34.081812
  2378.801,   -27.374474
  2378.851,   -21.753533
  2378.901,   -17.065582
  2378.951,   -13.140559
  2379.001,    -9.772439
  2379.051,    -6.788074
  2379.101,    -4.022748
  2379.151,    -1.363939
  2379.201,     1.269257
  2379.251,     3.915757
  2379.301,     6.542056
  2379.351,     9.121011
  2379.401,    11.581174
  2379.451,    13.839133
  2379.501,    15.818781
  2379.551,    17.470569
  2379.601,    18.767693
  2379.651,    19.669036
  2379.701,    20.227872
  2379.751,    20.446070
  2379.801,    20.414207
  2379.851,    20.176463
  2379.901,    19.795826
  2379.951,    19.338067
  2380.001,    18.852092
  2380.051,    18.333656
  2380.101,    17.812474
  2380.151,    17.251050
  2380.201,    16.613716
  2380.251,    15.869903
  2380.301,    14.949537
  2380.351,    13.818271
  2380.401,    12.454088
  2380.451,    10.851834
  2380.501,     9.021262
  2380.551,     7.017865
  2380.601,     4.879066
  2380.651,     2.693399
  2380.701,     0.558333
  2380.751,    -1.458697
  2380.801,    -3.288544
  2380.851,    -4.816833
  2380.901,    -6.033976
  2380.951,    -6.893912
  2381.001,    -7.375798
  2381.051,    -7.481555
  2381.101,    -7.236708
  2381.151,    -6.663399
  2381.201,    -5.803973
  2381.251,    -4.702491
  2381.301,    -3.400836
  2381.351,    -1.934302
  2381.401,    -0.349451
  2381.451,     1.299745
  2381.501,     2.961545
  2381.551,     4.592710
  2381.601,     6.134221
  2381.651,     7.543662
  2381.701,     8.754488
  2381.751,     9.708345
  2381.801,    10.383413
  2381.851,    10.703935
  2381.901,    10.669255
  2381.951,    10.238047
  2382.001,     9.413466
  2382.051,     8.213651
  2382.101,     6.683994
  2382.151,     4.842341
  2382.201,     2.754858
  2382.251,     0.513672
  2382.301,    -1.815796
  2382.351,    -4.156767
  2382.401,    -6.368327
  2382.451,    -8.407977
  2382.501,   -10.168234
  2382.551,   -11.568355
  2382.601,   -12.555529
  2382.651,   -13.087029
  2382.701,   -13.103093
  2382.751,   -12.616641
  2382.801,   -11.655441
  2382.851,   -10.239446
  2382.901,    -8.436256
  2382.951,    -6.323299
  2383.001,    -4.000117
  2383.051,    -1.579644
  2383.101,     0.808200
  2383.151,     3.089201
  2383.201,     5.135258
  2383.251,     6.893257
  2383.301,     8.280990
  2383.351,     9.255624
  2383.401,     9.793634
  2383.451,     9.938782
  2383.501,     9.691756
  2383.551,     9.093428
  2383.601,     8.217444
  2383.651,     7.100148
  2383.701,     5.828578
  2383.751,     4.456297
  2383.801,     3.032236
  2383.851,     1.598867
  2383.901,     0.207933
  2383.951,    -1.104958
  2384.001,    -2.342812
  2384.051,    -3.465329
  2384.101,    -4.459523
  2384.151,    -5.317529
  2384.201,    -6.025181
  2384.251,    -6.569029
  2384.301,    -6.932425
  2384.351,    -7.117634
  2384.401,    -7.105288
  2384.451,    -6.885065
  2384.501,    -6.457528
  2384.551,    -5.844686
  2384.601,    -5.064030
  2384.651,    -4.120027
  2384.701,    -3.060822
  2384.751,    -1.924134
  2384.801,    -0.746611
  2384.851,     0.422513
  2384.901,     1.531728
  2384.951,     2.556237
  2385.001,     3.444459
  2385.051,     4.165103
  2385.101,     4.723307
  2385.151,     5.084361
  2385.201,     5.267715
  2385.251,     5.286295
  2385.301,     5.164830
  2385.351,     4.944465
  2385.401,     4.646625
  2385.451,     4.327566
  2385.501,     4.003743
  2385.551,     3.706411
  2385.601,     3.423570
  2385.651,     3.186685
  2385.701,     2.946567
  2385.751,     2.708696
  2385.801,     2.446328
  2385.851,     2.092974
  2385.901,     1.646632
  2385.951,     1.061432
  2386.001,     0.341216
  2386.051,    -0.509714
  2386.101,    -1.493547
  2386.151,    -2.528251
  2386.201,    -3.594260
  2386.251,    -4.593460
  2386.301,    -5.461180
  2386.351,    -6.116091
  2386.401,    -6.497966
  2386.451,    -6.546722
  2386.501,    -6.210825
  2386.551,    -5.505100
  2386.601,    -4.429215
  2386.651,    -3.023265
  2386.701,    -1.349692
  2386.751,     0.525970
  2386.801,     2.490581
  2386.851,     4.466448
  2386.901,     6.331443
  2386.951,     8.019310
  2387.001,     9.433108
  2387.051,    10.499931
  2387.101,    11.184459
  2387.151,    11.481496
  2387.201,    11.357221
  2387.251,    10.845761
  2387.301,     9.960517
  2387.351,     8.775572
  2387.401,     7.324859
  2387.451,     5.691002
  2387.501,     3.918283
  2387.551,     2.088827
  2387.601,     0.247441
  2387.651,    -1.525535
  2387.701,    -3.215353
  2387.751,    -4.757809
  2387.801,    -6.123937
  2387.851,    -7.296040
  2387.901,    -8.247105
  2387.951,    -8.956554
  2388.001,    -9.421628
  2388.051,    -9.616201
  2388.101,    -9.531027
  2388.151,    -9.170108
  2388.201,    -8.520469
  2388.251,    -7.604307
  2388.301,    -6.418337
  2388.351,    -4.992413
  2388.401,    -3.374220
  2388.451,    -1.591121
  2388.501,     0.263689
  2388.551,     2.130437
  2388.601,     3.939144
  2388.651,     5.575937
  2388.701,     7.005363
  2388.751,     8.113864
  2388.801,     8.858326
  2388.851,     9.198966
  2388.901,     9.125623
  2388.951,     8.635597
  2389.001,     7.783503
  2389.051,     6.642304
  2389.101,     5.264553
  2389.151,     3.750092
  2389.201,     2.191453
  2389.251,     0.692358
  2389.301,    -0.694557
  2389.351,    -1.903576
  2389.401,    -2.902397
  2389.451,    -3.665129
  2389.501,    -4.200417
  2389.551,    -4.532843
  2389.601,    -4.685633
  2389.651,    -4.710852
  2389.701,    -4.638468
  2389.751,    -4.500591
  2389.801,    -4.337826
  2389.851,    -4.153614
  2389.901,    -3.957772
  2389.951,    -3.743466
  2390.001,    -3.502174
  2390.051,    -3.203777
  2390.101,    -2.842737
  2390.151,    -2.389806
  2390.201,    -1.859100
  2390.251,    -1.237405
  2390.301,    -0.539123
  2390.351,     0.231204
  2390.401,     1.021462
  2390.451,     1.828474
  2390.501,     2.575658
  2390.551,     3.281085
  2390.601,     3.883918
  2390.651,     4.355934
  2390.701,     4.702149
  2390.751,     4.895020
  2390.801,     4.946392
  2390.851,     4.863552
  2390.901,     4.654795
  2390.951,     4.322846
  2391.001,     3.901753
  2391.051,     3.387686
  2391.101,     2.801379
  2391.151,     2.142931
  2391.201,     1.412179
  2391.251,     0.613724
  2391.301,    -0.247938
  2391.351,    -1.149226
  2391.401,    -2.100247
  2391.451,    -3.088091
  2391.501,    -4.050573
  2391.551,    -4.975717
  2391.601,    -5.814059
  2391.651,    -6.520172
  2391.701,    -7.032429
  2391.751,    -7.317251
  2391.801,    -7.326496
  2391.851,    -7.027299
  2391.901,    -6.425972
  2391.951,    -5.512408
  2392.001,    -4.310446
  2392.051,    -2.889461
  2392.101,    -1.291431
  2392.151,     0.396086
  2392.201,     2.104110
  2392.251,     3.736357
  2392.301,     5.211575
  2392.351,     6.459988
  2392.401,     7.429601
  2392.451,     8.086620
  2392.501,     8.412376
  2392.551,     8.398463
  2392.601,     8.072260
  2392.651,     7.473958
  2392.701,     6.635987
  2392.751,     5.613362
  2392.801,     4.434598
  2392.851,     3.186643
  2392.901,     1.869000
  2392.951,     0.544967
  2393.001,    -0.780481
  2393.051,    -2.057444
  2393.101,    -3.286779
  2393.151,    -4.422587
  2393.201,    -5.463943
  2393.251,    -6.365654
  2393.301,    -7.100376
  2393.351,    -7.634726
  2393.401,    -7.918107
  2393.451,    -7.937746
  2393.501,    -7.671902
  2393.551,    -7.101552
  2393.601,    -6.245477
  2393.651,    -5.110996
  2393.701,    -3.762316
  2393.751,    -2.214879
  2393.801,    -0.591521
  2393.851,     1.066483
  2393.901,     2.662233
  2393.951,     4.113957
  2394.001,     5.348328
  2394.051,     6.320173
  2394.101,     6.981774
  2394.151,     7.317832
  2394.201,     7.335185
  2394.251,     7.053293
  2394.301,     6.499987
  2394.351,     5.734707
  2394.401,     4.819799
  2394.451,     3.812214
  2394.501,     2.756366
  2394.551,     1.733616
  2394.602,     0.757096
  2394.652,    -0.090226
  2394.702,    -0.837755
  2394.752,    -1.440351
  2394.802,    -1.933991
  2394.852,    -2.311753
  2394.902,    -2.596036
  2394.952,    -2.819239
  2395.002,    -2.988339
  2395.052,    -3.115704
  2395.102,    -3.232273
  2395.152,    -3.339110
  2395.202,    -3.423045
  2395.252,    -3.477772
  2395.302,    -3.497544
  2395.352,    -3.454247
  2395.402,    -3.334074
  2395.452,    -3.129157
  2395.502,    -2.830745
  2395.552,    -2.419755
  2395.602,    -1.909240
  2395.652,    -1.304723
  2395.702,    -0.624489
  2395.752,     0.109290
  2395.802,     0.875117
  2395.852,     1.653158
  2395.902,     2.394418
  2395.952,     3.099492
  2396.002,     3.730163
  2396.052,     4.248812
  2396.102,     4.678134
  2396.152,     4.963065
  2396.202,     5.119643
  2396.252,     5.130803
  2396.302,     5.003798
  2396.352,     4.728733
  2396.402,     4.309289
  2396.452,     3.754221
  2396.502,     3.083994
  2396.552,     2.290089
  2396.602,     1.395852
  2396.652,     0.424945
  2396.702,    -0.601461
  2396.752,    -1.647581
  2396.802,    -2.685844
  2396.852,    -3.686102
  2396.902,    -4.603028
  2396.952,    -5.396787
  2397.002,    -6.042628
  2397.052,    -6.516969
  2397.102,    -6.770310
  2397.152,    -6.805036
  2397.202,    -6.605507
  2397.252,    -6.186031
  2397.302,    -5.547845
  2397.352,    -4.687578
  2397.402,    -3.666460
  2397.452,    -2.477824
  2397.502,    -1.190099
  2397.552,     0.154083
  2397.602,     1.532820
  2397.652,     2.861995
  2397.702,     4.126842
  2397.752,     5.251884
  2397.802,     6.224850
  2397.852,     6.980639
  2397.902,     7.511442
  2397.952,     7.771311
  2398.002,     7.756017
  2398.052,     7.450812
  2398.102,     6.869895
  2398.152,     6.031415
  2398.202,     4.972363
  2398.252,     3.726766
  2398.302,     2.356893
  2398.352,     0.924871
  2398.402,    -0.510808
  2398.452,    -1.883768
  2398.502,    -3.131554
  2398.552,    -4.202857
  2398.602,    -5.052936
  2398.652,    -5.660562
  2398.702,    -5.990400
  2398.752,    -6.058936
  2398.802,    -5.872931
  2398.852,    -5.443321
  2398.902,    -4.805428
  2398.952,    -4.006902
  2399.002,    -3.077711
  2399.052,    -2.069494
  2399.102,    -1.031716
  2399.152,    -0.010234
  2399.202,     0.959205
  2399.252,     1.862502
  2399.302,     2.650324
  2399.352,     3.313043
  2399.402,     3.829845
  2399.452,     4.207601
  2399.502,     4.448810
  2399.552,     4.560041
  2399.602,     4.560871
  2399.652,     4.450827
  2399.702,     4.251296
  2399.752,     3.967108
  2399.802,     3.619572
  2399.852,     3.231400
  2399.902,     2.795272
  2399.952,     2.331835
  2400.002,     1.835916
  2400.052,     1.306579
  2400.102,     0.771389
  2400.152,     0.230642
  2400.202,    -0.295864
  2400.252,    -0.814385
  2400.302,    -1.296606
  2400.352,    -1.734574
  2400.402,    -2.126242
  2400.452,    -2.437685
  2400.502,    -2.675534
  2400.552,    -2.833418
  2400.602,    -2.916317
  2400.652,    -2.912609
  2400.702,    -2.851874
  2400.752,    -2.714857
  2400.802,    -2.533210
  2400.852,    -2.299607
  2400.902,    -2.020077
  2400.952,    -1.720805
  2401.002,    -1.401002
  2401.052,    -1.034672
  2401.102,    -0.647262
  2401.152,    -0.235042
  2401.202,     0.178922
  2401.252,     0.645489
  2401.302,     1.115287
  2401.352,     1.603231
  2401.402,     2.089531
  2401.452,     2.571666
  2401.502,     3.013450
  2401.552,     3.396150
  2401.602,     3.686148
  2401.652,     3.876862
  2401.702,     3.933474
  2401.752,     3.855397
  2401.802,     3.612266
  2401.852,     3.200817
  2401.902,     2.650128
  2401.952,     1.973015
  2402.002,     1.160305
  2402.052,     0.279747
  2402.102,    -0.646607
  2402.152,    -1.577173
  2402.202,    -2.476315
  2402.252,    -3.305147
  2402.302,    -4.035530
  2402.352,    -4.639558
  2402.402,    -5.081718
  2402.452,    -5.329145
  2402.502,    -5.386499
  2402.552,    -5.237673
  2402.602,    -4.892128
  2402.652,    -4.348889
  2402.702,    -3.633498
  2402.752,    -2.769670
  2402.802,    -1.775980
  2402.852,    -0.694786
  2402.902,     0.441724
  2402.952,     1.575316
  2403.002,     2.681809
  2403.052,     3.691406
  2403.102,     4.574774
  2403.152,     5.295538
  2403.202,     5.817282
  2403.252,     6.108236
  2403.302,     6.163226
  2403.352,     5.978905
  2403.402,     5.565241
  2403.452,     4.924164
  2403.502,     4.094673
  2403.552,     3.134199
  2403.602,     2.049702
  2403.652,     0.924720
  2403.702,    -0.212043
  2403.752,    -1.317571
  2403.802,    -2.322652
  2403.852,    -3.213082
  2403.902,    -3.938060
  2403.952,    -4.488777
  2404.002,    -4.846960
  2404.052,    -5.009559
  2404.102,    -4.998925
  2404.152,    -4.804393
  2404.202,    -4.472989
  2404.252,    -4.027065
  2404.302,    -3.479992
  2404.352,    -2.885439
  2404.402,    -2.259400
  2404.452,    -1.613452
  2404.502,    -0.998253
  2404.552,    -0.391898
  2404.602,     0.177943
  2404.652,     0.693947
  2404.702,     1.157909
  2404.752,     1.569805
  2404.802,     1.922917
  2404.852,     2.208742
  2404.902,     2.439997
  2404.952,     2.590288
  2405.002,     2.672017
  2405.052,     2.669623
  2405.102,     2.590094
  2405.152,     2.430831
  2405.202,     2.187741
  2405.252,     1.896262
  2405.302,     1.535681
  2405.352,     1.136203
  2405.402,     0.718718
  2405.452,     0.261504
  2405.502,    -0.187183
  2405.552,    -0.618001
  2405.602,    -1.015095
  2405.652,    -1.378270
  2405.702,    -1.691814
  2405.752,    -1.958842
  2405.802,    -2.174877
  2405.852,    -2.335502
  2405.902,    -2.453052
  2405.952,    -2.536304
  2406.002,    -2.577104
  2406.052,    -2.579562
  2406.102,    -2.562122
  2406.152,    -2.513294
  2406.202,    -2.429371
  2406.252,    -2.312531
  2406.302,    -2.142725
  2406.352,    -1.923794
  2406.402,    -1.663788
  2406.452,    -1.315497
  2406.502,    -0.928185
  2406.552,    -0.464742
  2406.602,     0.051785
  2406.652,     0.628969
  2406.702,     1.238565
  2406.752,     1.874519
  2406.802,     2.498612
  2406.852,     3.105294
  2406.902,     3.668186
  2406.952,     4.157740
  2407.002,     4.529534
  2407.052,     4.763608
  2407.102,     4.861090
  2407.152,     4.794255
  2407.202,     4.564485
  2407.252,     4.146310
  2407.302,     3.582639
  2407.352,     2.880732
  2407.402,     2.058052
  2407.452,     1.163255
  2407.502,     0.243950
  2407.552,    -0.677454
  2407.602,    -1.536861
  2407.652,    -2.303108
  2407.702,    -2.912153
  2407.752,    -3.354626
  2407.802,    -3.582049
  2407.852,    -3.605686
  2407.902,    -3.420326
  2407.952,    -3.030643
  2408.002,    -2.475740
  2408.052,    -1.753410
  2408.102,    -0.926223
  2408.152,    -0.033214
  2408.202,     0.890057
  2408.252,     1.791634
  2408.302,     2.643663
  2408.352,     3.408189
  2408.402,     4.052993
  2408.452,     4.566205
  2408.502,     4.935013
  2408.552,     5.127181
  2408.602,     5.159073
  2408.652,     5.052152
  2408.702,     4.804454
  2408.752,     4.405783
  2408.802,     3.901111
  2408.852,     3.288873
  2408.902,     2.577229
  2408.952,     1.794942
  2409.002,     0.954885
  2409.052,     0.088382
  2409.102,    -0.800174
  2409.152,    -1.673522
  2409.202,    -2.509587
  2409.252,    -3.298174
  2409.302,    -3.995511
  2409.352,    -4.585198
  2409.402,    -5.029372
  2409.452,    -5.339009
  2409.502,    -5.479947
  2409.552,    -5.463545
  2409.602,    -5.275128
  2409.652,    -4.933369
  2409.702,    -4.468904
  2409.752,    -3.887013
  2409.802,    -3.237487
  2409.852,    -2.533746
  2409.902,    -1.819668
