Time_abs/ps, Signal/nA
  2370.000,    -0.119867
  2370.050,    -0.100181
  2370.100,    -0.088462
  2370.150,    -0.074559
  2370.200,    -0.061199
  2370.250,    -0.046668
  2370.300,    -0.033328
  2370.350,    -0.019109
  2370.400,    -0.018455
  2370.450,    -0.007852
  2370.500,    -0.005274
  2370.550,     0.001101
  2370.600,     0.012500
  2370.650,     0.024490
  2370.700,     0.038920
  2370.750,     0.052205
  2370.800,     0.069420
  2370.850,     0.092855
  2370.900,     0.132346
  2370.950,     0.151116
  2371.000,     0.173115
  2371.050,     0.210441
  2371.100,     0.228940
  2371.150,     0.246263
  2371.200,     0.257735
  2371.250,     0.276615
  2371.300,     0.285569
  2371.350,     0.287973
  2371.400,     0.307324
  2371.450,     0.314565
  2371.500,     0.329917
  2371.550,     0.337627
  2371.600,     0.349498
  2371.650,     0.370064
  2371.700,     0.380229
  2371.750,     0.398061
  2371.800,     0.418879
  2371.850,     0.433270
  2371.900,     0.444393
  2371.950,     0.466724
  2372.000,     0.479449
  2372.050,     0.507781
  2372.100,     0.528604
  2372.150,     0.537954
  2372.200,     0.557635
  2372.250,     0.568117
  2372.300,     0.579322
  2372.350,     0.597587
  2372.400,     0.633283
  2372.450,     0.661560
  2372.500,     0.717556
  2372.550,     0.762657
  2372.600,     0.819387
  2372.650,     0.880589
  2372.700,     0.948307
  2372.750,     1.022425
  2372.800,     1.100671
  2372.850,     1.182381
  2372.900,     1.270873
  2372.950,     1.349788
  2373.000,     1.437856
  2373.050,     1.517361
  2373.100,     1.602826
  2373.150,     1.677266
  2373.200,     1.764194
  2373.250,     1.839014
  2373.300,     1.900131
  2373.350,     1.960375
  2373.400,     2.012204
  2373.450,     2.053307
  2373.500,     2.097151
  2373.550,     2.123651
  2373.600,     2.133089
  2373.650,     2.131095
  2373.700,     2.101803
  2373.750,     2.051040
  2373.800,     2.001763
  2373.850,     1.901886
  2373.900,     1.781041
  2373.950,     1.633053
  2374.000,     1.443580
  2374.050,     1.208324
  2374.100,     0.918907
  2374.150,     0.578006
  2374.200,     0.172810
  2374.250,    -0.305246
  2374.300,    -0.859775
  2374.350,    -1.487959
  2374.400,    -2.204020
  2374.450,    -3.012985
  2374.500,    -3.919414
  2374.550,    -4.929335
  2374.600,    -6.061323
  2374.650,    -7.305795
  2374.700,    -8.655425
  2374.750,   -10.141195
  2374.800,   -11.748722
  2374.850,   -13.509665
  2374.900,   -15.413303
  2374.950,   -17.491089
  2375.000,   -19.751420
  2375.050,   -22.209255
  2375.100,   -24.847847
  2375.150,   -27.721573
  2375.200,   -30.819796
  2375.250,   -34.135225
  2375.300,   -37.679919
  2375.350,   -41.394817
  2375.400,   -45.251066
  2375.450,   -49.141999
  2375.500,   -52.925415
  2375.550,   -56.440361
  2375.600,   -59.390961
  2375.650,   -61.489900
  2375.700,   -62.346542
  2375.750,   -61.488698
  2375.800,   -58.438718
  2375.850,   -52.672569
  2375.900,   -43.719364
  2375.950,   -31.172034
  2376.000,   -14.773249
  2376.050,     5.543078
  2376.100,    29.583133
  2376.150,    56.874348
  2376.200,    86.576685
  2376.250,   117.568055
  2376.300,   148.406392
  2376.350,   177.474173
  2376.400,   202.973126
  2376.450,   223.122375
  2376.500,   236.354775
  2376.550,   241.401204
  2376.600,   237.521711
  2376.650,   224.564763
  2376.700,   203.041384
  2376.750,   174.022864
  2376.800,   139.096318
  2376.850,   100.203257
  2376.900,    59.383917
  2376.950,    18.674534
  2377.000,   -20.033870
  2377.050,   -55.174542
  2377.100,   -85.488369
  2377.150,  -110.122956
  2377.200,  -128.621533
  2377.250,  -140.910018
  2377.300,  -147.295821
  2377.350,  -148.344221
  2377.400,  -144.812470
  2377.450,  -137.588256
  2377.500,  -127.604610
  2377.550,  -115.757051
  2377.600,  -102.862976
  2377.650,   -89.659237
  2377.700,   -76.784830
  2377.750,   -64.751796
  2377.800,   -53.943545
  2377.850,   -44.645165
  2377.900,   -36.994705
  2377.950,   -31.043904
  2378.000,   -26.690024
  2378.050,   -23.706724
  2378.100,   -21.823903
  2378.150,   -20.620156
  2378.201,   -19.671242
  2378.251,   -18.566203
  2378.301,   -16.940891
  2378.351,   -14.515220
  2378.401,   -11.151487
  2378.451,    -6.854413
  2378.501,    -1.779465
  2378.551,     3.811721
  2378.601,     9.539532
  2378.651,    14.984115
  2378.701,    19.764515
  2378.751,    23.561488
  2378.801,    26.113281
  2378.851,    27.360649
  2378.901,    27.309322
  2378.951,    26.150120
  2379.001,    24.145284
  2379.051,    21.648813
  2379.101,    19.009475
  2379.151,    16.569737
  2379.201,    14.581363
  2379.251,    13.256059
  2379.301,    12.687548
  2379.351,    12.815013
  2379.401,    13.520121
  2379.451,    14.600595
  2379.501,    15.790466
  2379.551,    16.781317
  2379.601,    17.313242
  2379.651,    17.175322
  2379.701,    16.207672
  2379.751,    14.346225
  2379.801,    11.652073
  2379.851,     8.268859
  2379.901,     4.389261
  2379.951,     0.337270
  2380.001,    -3.588967
  2380.051,    -7.100588
  2380.101,    -9.921431
  2380.151,   -11.856035
  2380.201,   -12.806474
  2380.251,   -12.806081
  2380.301,   -11.925319
  2380.351,   -10.333849
  2380.401,    -8.259005
  2380.451,    -5.931925
  2380.501,    -3.567600
  2380.551,    -1.346885
  2380.601,     0.633303
  2380.651,     2.314248
  2380.701,     3.713339
  2380.751,     4.893976
  2380.801,     5.956022
  2380.851,     6.981440
  2380.901,     8.026233
  2380.951,     9.090326
  2381.001,    10.167534
  2381.051,    11.145618
  2381.101,    11.926351
  2381.151,    12.371809
  2381.201,    12.345566
  2381.251,    11.761231
  2381.301,    10.554468
  2381.351,     8.729979
  2381.401,     6.353478
  2381.451,     3.531235
  2381.501,     0.429695
  2381.551,    -2.785368
  2381.601,    -5.942277
  2381.651,    -8.864056
  2381.701,   -11.400963
  2381.751,   -13.458067
  2381.801,   -14.940030
  2381.851,   -15.810939
  2381.901,   -16.051841
  2381.951,   -15.685622
  2382.001,   -14.722086
  2382.051,   -13.217712
  2382.101,   -11.205822
  2382.151,    -8.770244
  2382.201,    -6.005858
  2382.251,    -3.024519
  2382.301,     0.059705
  2382.351,     3.095534
  2382.401,     5.926714
  2382.451,     8.409517
  2382.501,    10.380509
  2382.551,    11.790146
  2382.601,    12.530477
  2382.651,    12.606321
  2382.701,    12.046774
  2382.751,    10.930446
  2382.801,     9.411923
  2382.851,     7.613575
  2382.901,     5.693433
  2382.951,     3.799218
  2383.001,     2.062859
  2383.051,     0.540324
  2383.101,    -0.718669
  2383.151,    -1.725584
  2383.201,    -2.507957
  2383.251,    -3.136891
  2383.301,    -3.670512
  2383.351,    -4.178897
  2383.401,    -4.731755
  2383.451,    -5.314166
  2383.501,    -5.931590
  2383.551,    -6.553644
  2383.601,    -7.114065
  2383.651,    -7.538334
  2383.701,    -7.737280
  2383.751,    -7.649124
  2383.801,    -7.225997
  2383.851,    -6.453368
  2383.901,    -5.344160
  2383.951,    -3.927083
  2384.001,    -2.316491
  2384.051,    -0.582446
  2384.101,     1.169296
  2384.151,     2.815540
  2384.201,     4.249736
  2384.251,     5.403774
  2384.301,     6.229458
  2384.351,     6.679736
  2384.401,     6.802010
  2384.451,     6.590842
  2384.501,     6.124095
  2384.551,     5.463888
  2384.601,     4.707761
  2384.651,     3.915130
  2384.701,     3.173482
  2384.751,     2.553516
  2384.801,     2.102972
  2384.851,     1.841020
  2384.901,     1.785639
  2384.951,     1.903996
  2385.001,     2.171057
  2385.051,     2.493841
  2385.101,     2.799006
  2385.151,     2.967623
  2385.201,     2.928792
  2385.251,     2.571615
  2385.301,     1.842413
  2385.351,     0.740266
  2385.401,    -0.733383
  2385.451,    -2.480393
  2385.501,    -4.402329
  2385.551,    -6.320387
  2385.601,    -8.040835
  2385.651,    -9.385377
  2385.701,   -10.188399
  2385.751,   -10.282145
  2385.801,    -9.596213
  2385.851,    -8.133772
  2385.901,    -5.941005
  2385.951,    -3.150327
  2386.001,     0.023802
  2386.051,     3.385455
  2386.101,     6.694545
  2386.151,     9.684015
  2386.201,    12.186696
  2386.251,    14.033241
  2386.301,    15.141544
  2386.351,    15.472856
  2386.401,    15.084346
  2386.451,    14.039535
  2386.501,    12.477390
  2386.551,    10.541707
  2386.601,     8.368956
  2386.651,     6.101836
  2386.701,     3.872509
  2386.751,     1.754634
  2386.801,    -0.166499
  2386.851,    -1.884529
  2386.901,    -3.376162
  2386.951,    -4.667789
  2387.001,    -5.760368
  2387.051,    -6.704275
  2387.101,    -7.509624
  2387.151,    -8.188771
  2387.201,    -8.760146
  2387.251,    -9.200885
  2387.301,    -9.501595
  2387.351,    -9.624217
  2387.401,    -9.533913
  2387.451,    -9.197229
  2387.501,    -8.563250
  2387.551,    -7.602252
  2387.601,    -6.293884
  2387.651,    -4.634954
  2387.701,    -2.675707
  2387.751,    -0.436379
  2387.801,     1.981572
  2387.851,     4.461650
  2387.901,     6.880365
  2387.951,     9.079411
  2388.001,    10.908642
  2388.051,    12.220011
  2388.101,    12.901176
  2388.151,    12.863906
  2388.201,    12.098442
  2388.251,    10.627338
  2388.301,     8.549696
  2388.351,     6.002127
  2388.401,     3.206134
  2388.451,     0.383102
  2388.501,    -2.251869
  2388.551,    -4.488116
  2388.601,    -6.157739
  2388.651,    -7.158098
  2388.701,    -7.473186
  2388.751,    -7.141494
  2388.801,    -6.299914
  2388.851,    -5.113231
  2388.901,    -3.766765
  2388.951,    -2.491033
  2389.001,    -1.456242
  2389.051,    -0.788503
  2389.101,    -0.557730
  2389.151,    -0.754292
  2389.201,    -1.314116
  2389.251,    -2.087163
  2389.301,    -2.926831
  2389.351,    -3.647946
  2389.401,    -4.098156
  2389.451,    -4.160094
  2389.501,    -3.780328
  2389.551,    -2.949038
  2389.601,    -1.712205
  2389.651,    -0.194037
  2389.701,     1.480628
  2389.751,     3.134372
  2389.801,     4.653293
  2389.851,     5.872400
  2389.901,     6.717590
  2389.951,     7.156817
  2390.001,     7.164256
  2390.051,     6.779724
  2390.101,     6.099591
  2390.151,     5.211686
  2390.201,     4.221109
  2390.251,     3.227424
  2390.301,     2.313365
  2390.351,     1.523771
  2390.401,     0.890962
  2390.451,     0.399276
  2390.501,     0.008749
  2390.551,    -0.361512
  2390.601,    -0.761185
  2390.651,    -1.286069
  2390.701,    -1.987600
  2390.751,    -2.876763
  2390.801,    -3.960400
  2390.851,    -5.177618
  2390.901,    -6.447669
  2390.951,    -7.646629
  2391.001,    -8.666378
  2391.051,    -9.348985
  2391.101,    -9.589895
  2391.151,    -9.272309
  2391.201,    -8.382790
  2391.251,    -6.910470
  2391.301,    -4.902451
  2391.351,    -2.486150
  2391.401,     0.212537
  2391.451,     2.994506
  2391.501,     5.679384
  2391.551,     8.073286
  2391.601,    10.004856
  2391.651,    11.352293
  2391.701,    12.028782
  2391.751,    12.020190
  2391.801,    11.336316
  2391.851,    10.099482
  2391.901,     8.435448
  2391.951,     6.498858
  2392.001,     4.462653
  2392.051,     2.482254
  2392.101,     0.706727
  2392.151,    -0.790228
  2392.201,    -1.951745
  2392.251,    -2.829940
  2392.301,    -3.444678
  2392.351,    -3.891651
  2392.401,    -4.274342
  2392.451,    -4.687840
  2392.501,    -5.176569
  2392.551,    -5.801519
  2392.601,    -6.527637
  2392.651,    -7.292732
  2392.701,    -7.989522
  2392.751,    -8.480340
  2392.801,    -8.644464
  2392.851,    -8.344677
  2392.901,    -7.490801
  2392.951,    -6.104093
  2393.001,    -4.165030
  2393.051,    -1.803112
  2393.101,     0.840962
  2393.151,     3.555693
  2393.201,     6.135238
  2393.251,     8.350600
  2393.301,    10.036803
  2393.351,    11.054141
  2393.401,    11.341873
  2393.451,    10.888977
  2393.501,     9.779748
  2393.551,     8.149034
  2393.601,     6.188147
  2393.651,     4.068770
  2393.701,     2.008863
  2393.751,     0.167627
  2393.801,    -1.334044
  2393.851,    -2.425394
  2393.901,    -3.057085
  2393.951,    -3.278399
  2394.001,    -3.180040
  2394.051,    -2.827140
  2394.101,    -2.338489
  2394.151,    -1.837115
  2394.201,    -1.421473
  2394.251,    -1.163280
  2394.301,    -1.109675
  2394.351,    -1.262777
  2394.401,    -1.633124
  2394.451,    -2.152351
  2394.501,    -2.783187
  2394.551,    -3.432872
  2394.602,    -4.000784
  2394.652,    -4.423489
  2394.702,    -4.626917
  2394.752,    -4.575341
  2394.802,    -4.212125
  2394.852,    -3.562721
  2394.902,    -2.645089
  2394.952,    -1.506367
  2395.002,    -0.248207
  2395.052,     1.072378
  2395.102,     2.372440
  2395.152,     3.556737
  2395.202,     4.554973
  2395.252,     5.337865
  2395.302,     5.867707
  2395.352,     6.149552
  2395.402,     6.196659
  2395.452,     6.049102
  2395.502,     5.736426
  2395.552,     5.312116
  2395.602,     4.808727
  2395.652,     4.254656
  2395.702,     3.641680
  2395.752,     2.982558
  2395.802,     2.263782
  2395.852,     1.465379
  2395.902,     0.587599
  2395.952,    -0.408510
  2396.002,    -1.479920
  2396.052,    -2.641517
  2396.102,    -3.826348
  2396.152,    -5.005683
  2396.202,    -6.111186
  2396.252,    -7.061737
  2396.302,    -7.797967
  2396.352,    -8.271710
  2396.402,    -8.410229
  2396.452,    -8.209135
  2396.502,    -7.643495
  2396.552,    -6.742976
  2396.602,    -5.534366
  2396.652,    -4.093958
  2396.702,    -2.455614
  2396.752,    -0.732786
  2396.802,     1.039095
  2396.852,     2.749287
  2396.902,     4.325990
  2396.952,     5.731638
  2397.002,     6.924583
  2397.052,     7.867855
  2397.102,     8.559578
  2397.152,     8.941259
  2397.202,     9.059769
  2397.252,     8.894157
  2397.302,     8.437039
  2397.352,     7.686770
  2397.402,     6.676259
  2397.452,     5.403686
  2397.502,     3.920728
  2397.552,     2.235774
  2397.602,     0.439551
  2397.652,    -1.392709
  2397.702,    -3.176416
  2397.752,    -4.794857
  2397.802,    -6.172576
  2397.852,    -7.221851
  2397.902,    -7.868668
  2397.952,    -8.080486
  2398.002,    -7.850377
  2398.052,    -7.210835
  2398.102,    -6.246139
  2398.152,    -5.013898
  2398.202,    -3.626714
  2398.252,    -2.177462
  2398.302,    -0.742027
  2398.352,     0.555135
  2398.402,     1.702944
  2398.452,     2.660625
  2398.502,     3.409300
  2398.552,     3.965570
  2398.602,     4.335880
  2398.652,     4.545550
  2398.702,     4.635780
  2398.752,     4.623317
  2398.802,     4.526463
  2398.852,     4.361997
  2398.902,     4.141708
  2398.952,     3.882612
  2399.002,     3.597423
  2399.052,     3.274559
  2399.102,     2.947270
  2399.152,     2.600500
  2399.202,     2.233198
  2399.252,     1.850808
  2399.302,     1.435651
  2399.352,     1.004164
  2399.402,     0.524973
  2399.452,    -0.007659
  2399.502,    -0.566680
  2399.552,    -1.140958
  2399.602,    -1.715802
  2399.652,    -2.270457
  2399.702,    -2.747308
  2399.752,    -3.132105
  2399.802,    -3.379246
  2399.852,    -3.484271
  2399.902,    -3.437084
  2399.952,    -3.243471
  2400.002,    -2.938128
  2400.052,    -2.527868
  2400.102,    -2.073059
  2400.152,    -1.615560
  2400.202,    -1.165728
  2400.252,    -0.779715
  2400.302,    -0.443474
  2400.352,    -0.174783
  2400.402,     0.061301
  2400.452,     0.287819
  2400.502,     0.545889
  2400.552,     0.849547
  2400.602,     1.222691
  2400.652,     1.673644
  2400.702,     2.195989
  2400.752,     2.796748
  2400.802,     3.396549
  2400.852,     3.973886
  2400.902,     4.448765
  2400.952,     4.796436
  2401.002,     4.944291
  2401.052,     4.844284
  2401.102,     4.467379
  2401.152,     3.824167
  2401.202,     2.920441
  2401.252,     1.804882
  2401.302,     0.520426
  2401.352,    -0.846407
  2401.402,    -2.206406
  2401.452,    -3.483634
  2401.502,    -4.612896
  2401.552,    -5.507770
  2401.602,    -6.155971
  2401.652,    -6.530796
  2401.702,    -6.614661
  2401.752,    -6.427848
  2401.802,    -6.027595
  2401.852,    -5.403624
  2401.902,    -4.644478
  2401.952,    -3.741859
  2402.002,    -2.753772
  2402.052,    -1.686563
  2402.102,    -0.561323
  2402.152,     0.597943
  2402.202,     1.765438
  2402.252,     2.918461
  2402.302,     4.013736
  2402.352,     4.980895
  2402.402,     5.797754
  2402.452,     6.397435
  2402.502,     6.736603
  2402.552,     6.782368
  2402.602,     6.503165
  2402.652,     5.910711
  2402.702,     5.004759
  2402.752,     3.871893
  2402.802,     2.553387
  2402.852,     1.123989
  2402.902,    -0.327861
  2402.952,    -1.699492
  2403.002,    -2.935764
  2403.052,    -3.950932
  2403.102,    -4.700877
  2403.152,    -5.163392
  2403.202,    -5.321755
  2403.252,    -5.168502
  2403.302,    -4.747194
  2403.352,    -4.077855
  2403.402,    -3.248498
  2403.452,    -2.292531
  2403.502,    -1.286057
  2403.552,    -0.290371
  2403.602,     0.648000
  2403.652,     1.484658
  2403.702,     2.156588
  2403.752,     2.675372
  2403.802,     3.010443
  2403.852,     3.207257
  2403.902,     3.275555
  2403.952,     3.245101
  2404.002,     3.168544
  2404.052,     3.067786
  2404.102,     2.965605
  2404.152,     2.881932
  2404.202,     2.813867
  2404.252,     2.754083
  2404.302,     2.676995
  2404.352,     2.562261
  2404.402,     2.358286
  2404.452,     2.061717
  2404.502,     1.637853
  2404.552,     1.102913
  2404.602,     0.450041
  2404.652,    -0.271249
  2404.702,    -1.049733
  2404.752,    -1.815457
  2404.802,    -2.524175
  2404.852,    -3.132747
  2404.902,    -3.610966
  2404.952,    -3.946636
  2405.002,    -4.137433
  2405.052,    -4.187958
  2405.102,    -4.124988
  2405.152,    -3.970440
  2405.202,    -3.767219
  2405.252,    -3.552498
  2405.302,    -3.359584
  2405.352,    -3.199530
  2405.402,    -3.079983
  2405.452,    -2.996723
  2405.502,    -2.943469
  2405.552,    -2.888730
  2405.602,    -2.816132
  2405.652,    -2.674771
  2405.702,    -2.451168
  2405.752,    -2.118749
  2405.802,    -1.651534
  2405.852,    -1.046631
  2405.902,    -0.307042
  2405.952,     0.516159
  2406.002,     1.422801
  2406.052,     2.385667
  2406.102,     3.321718
  2406.152,     4.201593
  2406.202,     4.965023
  2406.252,     5.585656
  2406.302,     6.019936
  2406.352,     6.217551
  2406.402,     6.186101
  2406.452,     5.927396
  2406.502,     5.420888
  2406.552,     4.703412
  2406.602,     3.775904
  2406.652,     2.703206
  2406.702,     1.505942
  2406.752,     0.254426
  2406.802,    -0.977602
  2406.852,    -2.148382
  2406.902,    -3.174899
  2406.952,    -4.009372
  2407.002,    -4.580665
  2407.052,    -4.823824
  2407.102,    -4.765894
  2407.152,    -4.370605
  2407.202,    -3.670388
  2407.252,    -2.697185
  2407.302,    -1.520276
  2407.352,    -0.220946
  2407.402,     1.127006
  2407.452,     2.431837
  2407.502,     3.621947
  2407.552,     4.645870
  2407.602,     5.451133
  2407.652,     6.017727
  2407.702,     6.332297
  2407.752,     6.415457
  2407.802,     6.298474
  2407.852,     6.001789
  2407.902,     5.553790
  2407.952,     5.011429
  2408.002,     4.414822
  2408.052,     3.768299
  2408.102,     3.084137
  2408.152,     2.395343
  2408.202,     1.670107
  2408.252,     0.927434
  2408.302,     0.148622
  2408.352,    -0.663438
  2408.402,    -1.510161
  2408.452,    -2.369306
  2408.502,    -3.252842
  2408.552,    -4.103357
  2408.602,    -4.886261
  2408.652,    -5.558287
  2408.702,    -6.084650
  2408.752,    -6.387585
  2408.802,    -6.468032
  2408.852,    -6.288846
  2408.902,    -5.870991
  2408.952,    -5.214123
  2409.002,    -4.353552
  2409.052,    -3.352329
  2409.102,    -2.279566
  2409.152,    -1.195850
  2409.202,    -0.172167
  2409.252,     0.715034
  2409.302,     1.431101
  2409.352,     1.937706
  2409.402,     2.234481
  2409.452,     2.317117
  2409.502,     2.237978
  2409.552,     2.020321
  2409.602,     1.743474
  2409.652,     1.457788
  2409.702,     1.225182
  2409.752,     1.090421
  2409.802,     1.092837
  2409.852,     1.224168
  2409.902,     1.463488
