Time_abs/ps, Signal/nA
  2370.000,     0.491861
  2370.050,     0.382589
  2370.100,     0.297239
  2370.150,     0.198055
  2370.200,     0.113188
  2370.250,     0.033737
  2370.300,    -0.022554
  2370.350,    -0.070279
  2370.400,    -0.117175
  2370.450,    -0.136524
  2370.500,    -0.147738
  2370.550,    -0.157076
  2370.600,    -0.153439
  2370.650,    -0.142309
  2370.700,    -0.131044
  2370.750,    -0.119438
  2370.800,    -0.102125
  2370.850,    -0.083607
  2370.900,    -0.072812
  2370.950,    -0.060550
  2371.000,    -0.044895
  2371.050,    -0.034321
  2371.100,    -0.024550
  2371.150,    -0.010668
  2371.200,     0.007473
  2371.250,     0.007493
  2371.300,     0.017162
  2371.350,     0.020758
  2371.400,     0.037107
  2371.450,     0.057996
  2371.500,     0.075503
  2371.550,     0.094990
  2371.600,     0.112897
  2371.650,     0.128808
  2371.700,     0.158807
  2371.750,     0.178659
  2371.800,     0.192849
  2371.850,     0.215466
  2371.900,     0.230131
  2371.950,     0.241677
  2372.000,     0.261131
  2372.050,     0.268626
  2372.100,     0.281144
  2372.150,     0.291599
  2372.200,     0.302934
  2372.250,     0.316035
  2372.300,     0.321657
  2372.350,     0.343638
  2372.400,     0.354985
  2372.450,     0.385447
  2372.500,     0.395898
  2372.550,     0.409191
  2372.600,     0.428536
  2372.650,     0.456735
  2372.700,     0.468595
  2372.750,     0.494260
  2372.800,     0.516817
  2372.850,     0.532246
  2372.900,     0.552305
  2372.950,     0.579747
  2373.000,     0.602070
  2373.050,     0.628729
  2373.100,     0.674929
  2373.150,     0.707503
  2373.200,     0.763263
  2373.250,     0.815982
  2373.300,     0.871706
  2373.350,     0.926326
  2373.400,     1.000481
  2373.450,     1.083682
  2373.500,     1.157354
  2373.550,     1.246832
  2373.600,     1.322673
  2373.650,     1.407804
  2373.700,     1.499316
  2373.750,     1.582386
  2373.800,     1.662054
  2373.850,     1.747151
  2373.900,     1.824399
  2373.950,     1.895554
  2374.000,     1.963090
  2374.050,     2.023673
  2374.100,     2.067091
  2374.150,     2.112618
  2374.200,     2.131831
  2374.250,     2.144780
  2374.300,     2.130344
  2374.350,     2.125551
  2374.400,     2.092953
  2374.450,     2.027589
  2374.500,     1.934485
  2374.550,     1.812724
  2374.600,     1.654603
  2374.650,     1.468086
  2374.700,     1.221355
  2374.750,     0.935343
  2374.800,     0.591245
  2374.850,     0.182001
  2374.900,    -0.292603
  2374.950,    -0.834718
  2375.000,    -1.463936
  2375.050,    -2.167558
  2375.100,    -2.983996
  2375.150,    -3.874676
  2375.200,    -4.868388
  2375.250,    -5.974279
  2375.300,    -7.184063
  2375.350,    -8.528143
  2375.400,    -9.969000
  2375.450,   -11.561553
  2375.500,   -13.282699
  2375.550,   -15.154871
  2375.600,   -17.192639
  2375.650,   -19.403462
  2375.700,   -21.800990
  2375.750,   -24.399078
  2375.800,   -27.209447
  2375.850,   -30.253991
  2375.900,   -33.511842
  2375.950,   -36.987495
  2376.000,   -40.645934
  2376.050,   -44.435692
  2376.100,   -48.227042
  2376.150,   -51.918516
  2376.200,   -55.294558
  2376.250,   -58.103069
  2376.300,   -60.040534
  2376.350,   -60.720408
  2376.400,   -59.749660
  2376.450,   -56.659767
  2376.500,   -51.009533
  2376.550,   -42.409073
  2376.600,   -30.563969
  2376.650,   -15.259303
  2376.700,     3.510509
  2376.750,    25.521538
  2376.800,    50.331666
  2376.850,    77.235767
  2376.900,   105.289378
  2376.950,   133.329057
  2377.000,   160.015888
  2377.050,   183.915799
  2377.100,   203.592086
  2377.150,   217.738304
  2377.200,   225.242282
  2377.250,   225.344205
  2377.300,   217.693187
  2377.350,   202.426030
  2377.400,   180.138691
  2377.450,   151.843995
  2377.500,   118.880036
  2377.550,    82.816890
  2377.600,    45.328405
  2377.650,     8.032993
  2377.700,   -27.503239
  2377.750,   -59.967189
  2377.800,   -88.236879
  2377.850,  -111.504395
  2377.900,  -129.262740
  2377.950,  -141.302344
  2378.000,  -147.739100
  2378.050,  -148.950221
  2378.100,  -145.531457
  2378.150,  -138.265891
  2378.201,  -128.008456
  2378.251,  -115.687822
  2378.301,  -102.176919
  2378.351,   -88.312158
  2378.401,   -74.809707
  2378.451,   -62.250012
  2378.501,   -51.085704
  2378.551,   -41.590819
  2378.601,   -33.861319
  2378.651,   -27.862749
  2378.701,   -23.423305
  2378.751,   -20.281224
  2378.801,   -18.078327
  2378.851,   -16.459883
  2378.901,   -15.047233
  2378.951,   -13.518008
  2379.001,   -11.606538
  2379.051,    -9.140375
  2379.101,    -6.060867
  2379.151,    -2.403549
  2379.201,     1.702937
  2379.251,     6.048336
  2379.301,    10.392053
  2379.351,    14.493860
  2379.401,    18.096634
  2379.451,    20.993995
  2379.501,    23.060484
  2379.551,    24.247002
  2379.601,    24.559660
  2379.651,    24.111564
  2379.701,    23.064550
  2379.751,    21.620179
  2379.801,    19.988319
  2379.851,    18.396515
  2379.901,    16.993128
  2379.951,    15.909974
  2380.001,    15.198379
  2380.051,    14.862463
  2380.101,    14.819762
  2380.151,    14.935596
  2380.201,    15.067523
  2380.251,    15.043287
  2380.301,    14.687491
  2380.351,    13.898302
  2380.401,    12.570331
  2380.451,    10.688926
  2380.501,     8.303364
  2380.551,     5.499797
  2380.601,     2.458725
  2380.651,    -0.640027
  2380.701,    -3.613279
  2380.751,    -6.247256
  2380.801,    -8.386051
  2380.851,    -9.905044
  2380.901,   -10.745097
  2380.951,   -10.884130
  2381.001,   -10.366579
  2381.051,    -9.285523
  2381.101,    -7.756608
  2381.151,    -5.897069
  2381.201,    -3.852148
  2381.251,    -1.738568
  2381.301,     0.362770
  2381.351,     2.345991
  2381.401,     4.200595
  2381.451,     5.900736
  2381.501,     7.397309
  2381.551,     8.708842
  2381.601,     9.825515
  2381.651,    10.736753
  2381.701,    11.400232
  2381.751,    11.783143
  2381.801,    11.864270
  2381.851,    11.574856
  2381.901,    10.889407
  2381.951,     9.798383
  2382.001,     8.278002
  2382.051,     6.375977
  2382.101,     4.118558
  2382.151,     1.584114
  2382.201,    -1.108632
  2382.251,    -3.872314
  2382.301,    -6.565212
  2382.351,    -9.072610
  2382.401,   -11.276804
  2382.451,   -13.081465
  2382.501,   -14.384477
  2382.551,   -15.139906
  2382.601,   -15.284847
  2382.651,   -14.823495
  2382.701,   -13.766856
  2382.751,   -12.149202
  2382.801,   -10.056344
  2382.851,    -7.574685
  2382.901,    -4.818556
  2382.951,    -1.906677
  2383.001,     1.007272
  2383.051,     3.796913
  2383.101,     6.316755
  2383.151,     8.454991
  2383.201,    10.118738
  2383.251,    11.264178
  2383.301,    11.842271
  2383.351,    11.877010
  2383.401,    11.395274
  2383.451,    10.459718
  2383.501,     9.184103
  2383.551,     7.650969
  2383.601,     5.953385
  2383.651,     4.226085
  2383.701,     2.516325
  2383.751,     0.907463
  2383.801,    -0.549612
  2383.851,    -1.834476
  2383.901,    -2.962021
  2383.951,    -3.921172
  2384.001,    -4.737662
  2384.051,    -5.420523
  2384.101,    -5.994056
  2384.151,    -6.468962
  2384.201,    -6.833833
  2384.251,    -7.095087
  2384.301,    -7.198430
  2384.351,    -7.141666
  2384.401,    -6.908617
  2384.451,    -6.440492
  2384.501,    -5.766847
  2384.551,    -4.858867
  2384.601,    -3.765716
  2384.651,    -2.498760
  2384.701,    -1.134186
  2384.751,     0.280330
  2384.801,     1.674769
  2384.851,     2.963569
  2384.901,     4.104410
  2384.951,     5.012560
  2385.001,     5.677546
  2385.051,     6.073821
  2385.101,     6.192769
  2385.151,     6.064734
  2385.201,     5.721491
  2385.251,     5.236019
  2385.301,     4.650149
  2385.351,     4.037790
  2385.401,     3.467787
  2385.451,     2.989814
  2385.501,     2.630575
  2385.551,     2.422445
  2385.601,     2.344263
  2385.651,     2.372855
  2385.701,     2.465600
  2385.751,     2.543498
  2385.801,     2.520739
  2385.851,     2.349049
  2385.901,     1.951996
  2385.951,     1.295932
  2386.001,     0.354872
  2386.051,    -0.850151
  2386.101,    -2.246483
  2386.151,    -3.769518
  2386.201,    -5.281748
  2386.251,    -6.673039
  2386.301,    -7.788694
  2386.351,    -8.497246
  2386.401,    -8.725579
  2386.451,    -8.344757
  2386.501,    -7.374972
  2386.551,    -5.819519
  2386.601,    -3.762114
  2386.651,    -1.296296
  2386.701,     1.413852
  2386.751,     4.226191
  2386.801,     6.938901
  2386.851,     9.394648
  2386.901,    11.442408
  2386.951,    12.992578
  2387.001,    13.931425
  2387.051,    14.264618
  2387.101,    13.980173
  2387.151,    13.136689
  2387.201,    11.799261
  2387.251,    10.087768
  2387.301,     8.092463
  2387.351,     5.933802
  2387.401,     3.722196
  2387.451,     1.557244
  2387.501,    -0.494647
  2387.551,    -2.368933
  2387.601,    -4.044153
  2387.651,    -5.486036
  2387.701,    -6.692216
  2387.751,    -7.670675
  2387.801,    -8.425486
  2387.851,    -8.982918
  2387.901,    -9.343591
  2387.951,    -9.515211
  2388.001,    -9.498675
  2388.051,    -9.258477
  2388.101,    -8.799960
  2388.151,    -8.104157
  2388.201,    -7.148346
  2388.251,    -5.928193
  2388.301,    -4.432093
  2388.351,    -2.686751
  2388.401,    -0.753565
  2388.451,     1.331334
  2388.501,     3.464087
  2388.551,     5.554873
  2388.601,     7.475541
  2388.651,     9.125127
  2388.701,    10.370509
  2388.751,    11.124239
  2388.801,    11.313932
  2388.851,    10.924859
  2388.901,     9.955027
  2388.951,     8.473375
  2389.001,     6.583720
  2389.051,     4.408250
  2389.101,     2.099698
  2389.151,    -0.153492
  2389.201,    -2.213420
  2389.251,    -3.946349
  2389.301,    -5.241484
  2389.351,    -6.065511
  2389.401,    -6.403789
  2389.451,    -6.327046
  2389.501,    -5.881839
  2389.551,    -5.210700
  2389.601,    -4.411355
  2389.651,    -3.617226
  2389.701,    -2.913147
  2389.751,    -2.389672
  2389.801,    -2.078528
  2389.851,    -1.971169
  2389.901,    -2.041493
  2389.951,    -2.215578
  2390.001,    -2.412061
  2390.051,    -2.557619
  2390.101,    -2.556871
  2390.151,    -2.333241
  2390.201,    -1.876618
  2390.251,    -1.190353
  2390.301,    -0.277949
  2390.351,     0.783133
  2390.401,     1.941654
  2390.451,     3.094395
  2390.501,     4.153145
  2390.551,     5.055255
  2390.601,     5.717539
  2390.651,     6.125447
  2390.701,     6.248201
  2390.751,     6.098619
  2390.801,     5.712939
  2390.851,     5.148482
  2390.901,     4.452946
  2390.951,     3.671039
  2391.001,     2.873270
  2391.051,     2.072173
  2391.101,     1.310157
  2391.151,     0.558564
  2391.201,    -0.153496
  2391.251,    -0.893414
  2391.301,    -1.650755
  2391.351,    -2.461851
  2391.401,    -3.343888
  2391.451,    -4.276508
  2391.501,    -5.245960
  2391.551,    -6.193452
  2391.601,    -7.058973
  2391.651,    -7.755012
  2391.701,    -8.224399
  2391.751,    -8.369686
  2391.801,    -8.135054
  2391.851,    -7.468135
  2391.901,    -6.378532
  2391.951,    -4.847356
  2392.001,    -2.987580
  2392.051,    -0.844673
  2392.101,     1.431588
  2392.151,     3.737853
  2392.201,     5.882545
  2392.251,     7.770866
  2392.301,     9.260592
  2392.351,    10.274928
  2392.401,    10.763992
  2392.451,    10.714742
  2392.501,    10.150166
  2392.551,     9.151300
  2392.601,     7.792625
  2392.651,     6.200023
  2392.701,     4.493929
  2392.751,     2.763868
  2392.801,     1.116420
  2392.851,    -0.399438
  2392.901,    -1.750362
  2392.951,    -2.905798
  2393.001,    -3.888339
  2393.051,    -4.729644
  2393.101,    -5.462923
  2393.151,    -6.123384
  2393.201,    -6.714857
  2393.251,    -7.228244
  2393.301,    -7.656163
  2393.351,    -7.933571
  2393.401,    -8.020456
  2393.451,    -7.837457
  2393.501,    -7.332872
  2393.551,    -6.476302
  2393.601,    -5.257611
  2393.651,    -3.675463
  2393.701,    -1.812349
  2393.751,     0.268692
  2393.801,     2.419287
  2393.851,     4.532939
  2393.901,     6.459472
  2393.951,     8.065957
  2394.001,     9.231523
  2394.051,     9.888676
  2394.101,    10.017474
  2394.151,     9.597745
  2394.201,     8.705757
  2394.251,     7.433468
  2394.301,     5.866762
  2394.351,     4.158541
  2394.401,     2.408919
  2394.451,     0.761445
  2394.501,    -0.677888
  2394.551,    -1.846162
  2394.602,    -2.706569
  2394.652,    -3.248270
  2394.702,    -3.508821
  2394.752,    -3.520682
  2394.802,    -3.354194
  2394.852,    -3.100739
  2394.902,    -2.805763
  2394.952,    -2.567661
  2395.002,    -2.402538
  2395.052,    -2.359477
  2395.102,    -2.448385
  2395.152,    -2.635197
  2395.202,    -2.889110
  2395.252,    -3.171057
  2395.302,    -3.420325
  2395.352,    -3.569897
  2395.402,    -3.583679
  2395.452,    -3.419140
  2395.502,    -3.051123
  2395.552,    -2.463433
  2395.602,    -1.684680
  2395.652,    -0.745123
  2395.702,     0.295760
  2395.752,     1.389923
  2395.802,     2.468202
  2395.852,     3.478849
  2395.902,     4.373536
  2395.952,     5.105538
  2396.002,     5.646531
  2396.052,     5.992430
  2396.102,     6.131463
  2396.152,     6.080683
  2396.202,     5.860416
  2396.252,     5.474915
  2396.302,     4.961530
  2396.352,     4.334588
  2396.402,     3.609789
  2396.452,     2.809513
  2396.502,     1.908146
  2396.552,     0.947517
  2396.602,    -0.076845
  2396.652,    -1.163073
  2396.702,    -2.275213
  2396.752,    -3.388061
  2396.802,    -4.480121
  2396.852,    -5.478366
  2396.902,    -6.375920
  2396.952,    -7.099796
  2397.002,    -7.616684
  2397.052,    -7.868274
  2397.102,    -7.836697
  2397.152,    -7.511788
  2397.202,    -6.881141
  2397.252,    -5.964935
  2397.302,    -4.792261
  2397.352,    -3.396277
  2397.402,    -1.842972
  2397.452,    -0.198230
  2397.502,     1.485273
  2397.552,     3.119161
  2397.602,     4.663393
  2397.652,     6.058647
  2397.702,     7.245764
  2397.752,     8.164466
  2397.802,     8.805272
  2397.852,     9.137774
  2397.902,     9.145075
  2397.952,     8.834231
  2398.002,     8.202702
  2398.052,     7.265648
  2398.102,     6.060343
  2398.152,     4.619644
  2398.202,     3.021106
  2398.252,     1.308381
  2398.302,    -0.434090
  2398.352,    -2.114591
  2398.402,    -3.679214
  2398.452,    -5.042771
  2398.502,    -6.139228
  2398.552,    -6.914322
  2398.602,    -7.336985
  2398.652,    -7.406750
  2398.702,    -7.124033
  2398.752,    -6.525975
  2398.802,    -5.655809
  2398.852,    -4.592935
  2398.902,    -3.373725
  2398.952,    -2.080064
  2399.002,    -0.782621
  2399.052,     0.462922
  2399.102,     1.603930
  2399.152,     2.592519
  2399.202,     3.431067
  2399.252,     4.081304
  2399.302,     4.548471
  2399.352,     4.840496
  2399.402,     4.972307
  2399.452,     4.954936
  2399.502,     4.829263
  2399.552,     4.607934
  2399.602,     4.304937
  2399.652,     3.963383
  2399.702,     3.580103
  2399.752,     3.183357
  2399.802,     2.777753
  2399.852,     2.346645
  2399.902,     1.908245
  2399.952,     1.462210
  2400.002,     0.997895
  2400.052,     0.506612
  2400.102,    -0.005281
  2400.152,    -0.512345
  2400.202,    -1.038169
  2400.252,    -1.546421
  2400.302,    -2.011769
  2400.352,    -2.432000
  2400.402,    -2.751603
  2400.452,    -3.003358
  2400.502,    -3.124086
  2400.552,    -3.142729
  2400.602,    -3.042848
  2400.652,    -2.854123
  2400.702,    -2.579730
  2400.752,    -2.245655
  2400.802,    -1.874630
  2400.852,    -1.479360
  2400.902,    -1.073718
  2400.952,    -0.696314
  2401.002,    -0.320972
  2401.052,     0.029372
  2401.102,     0.383170
  2401.152,     0.731774
  2401.202,     1.101043
  2401.252,     1.483528
  2401.302,     1.886421
  2401.352,     2.313914
  2401.402,     2.759878
  2401.452,     3.184553
  2401.502,     3.584227
  2401.552,     3.899523
  2401.602,     4.122109
  2401.652,     4.192595
  2401.702,     4.092228
  2401.752,     3.803116
  2401.802,     3.298505
  2401.852,     2.613494
  2401.902,     1.743024
  2401.952,     0.739487
  2402.002,    -0.378744
  2402.052,    -1.527462
  2402.102,    -2.657669
  2402.152,    -3.696246
  2402.202,    -4.608081
  2402.252,    -5.348667
  2402.302,    -5.889443
  2402.352,    -6.179789
  2402.402,    -6.229018
  2402.452,    -6.030919
  2402.502,    -5.608933
  2402.552,    -4.971502
  2402.602,    -4.139794
  2402.652,    -3.154450
  2402.702,    -2.023354
  2402.752,    -0.802886
  2402.802,     0.469553
  2402.852,     1.757523
  2402.902,     3.014930
  2402.952,     4.168778
  2403.002,     5.226645
  2403.052,     6.098228
  2403.102,     6.768820
  2403.152,     7.170126
  2403.202,     7.321807
  2403.252,     7.174688
  2403.302,     6.735581
  2403.352,     6.028493
  2403.402,     5.074482
  2403.452,     3.925276
  2403.502,     2.615509
  2403.552,     1.231703
  2403.602,    -0.168754
  2403.652,    -1.522447
  2403.702,    -2.766825
  2403.752,    -3.849508
  2403.802,    -4.711905
  2403.852,    -5.329464
  2403.902,    -5.700260
  2403.952,    -5.807806
  2404.002,    -5.670661
  2404.052,    -5.312993
  2404.102,    -4.784059
  2404.152,    -4.131191
  2404.202,    -3.375001
  2404.252,    -2.573892
  2404.302,    -1.797584
  2404.352,    -1.046825
  2404.402,    -0.371622
  2404.452,     0.211719
  2404.502,     0.725472
  2404.552,     1.136601
  2404.602,     1.469091
  2404.652,     1.746217
  2404.702,     1.986640
  2404.752,     2.171705
  2404.802,     2.351533
  2404.852,     2.501557
  2404.902,     2.616757
  2404.952,     2.692660
  2405.002,     2.707631
  2405.052,     2.653177
  2405.102,     2.520265
  2405.152,     2.289019
  2405.202,     1.973790
  2405.252,     1.564201
  2405.302,     1.082450
  2405.352,     0.544854
  2405.402,    -0.016107
  2405.452,    -0.583461
  2405.502,    -1.127301
  2405.552,    -1.598397
  2405.602,    -2.006637
  2405.652,    -2.325574
  2405.702,    -2.552393
  2405.752,    -2.672618
  2405.802,    -2.731328
  2405.852,    -2.703931
  2405.902,    -2.639206
  2405.952,    -2.543552
  2406.002,    -2.421843
  2406.052,    -2.306046
  2406.102,    -2.187962
  2406.152,    -2.069235
  2406.202,    -1.956924
  2406.252,    -1.819359
  2406.302,    -1.653968
  2406.352,    -1.421564
  2406.402,    -1.126395
  2406.452,    -0.745999
  2406.502,    -0.268851
  2406.552,     0.286891
  2406.602,     0.934698
  2406.652,     1.639798
  2406.702,     2.380707
  2406.752,     3.148815
  2406.802,     3.876113
  2406.852,     4.532579
  2406.902,     5.086065
  2406.952,     5.498299
  2407.002,     5.727688
  2407.052,     5.762963
  2407.102,     5.572562
  2407.152,     5.165486
  2407.202,     4.539861
  2407.252,     3.714308
  2407.302,     2.725936
  2407.352,     1.599477
  2407.402,     0.414739
  2407.452,    -0.793185
  2407.502,    -1.950059
  2407.552,    -2.987941
  2407.602,    -3.860197
  2407.652,    -4.489917
  2407.702,    -4.860310
  2407.752,    -4.938065
  2407.802,    -4.718456
  2407.852,    -4.218296
  2407.902,    -3.459562
  2407.952,    -2.480429
  2408.002,    -1.350700
  2408.052,    -0.128751
  2408.102,     1.110936
  2408.152,     2.312947
  2408.202,     3.409782
  2408.252,     4.367354
  2408.302,     5.135087
  2408.352,     5.690062
  2408.402,     6.020830
  2408.452,     6.132484
  2408.502,     6.052888
  2408.552,     5.782293
  2408.602,     5.365117
  2408.652,     4.822805
  2408.702,     4.182858
  2408.752,     3.478092
  2408.802,     2.715477
  2408.852,     1.907501
  2408.902,     1.091012
  2408.952,     0.241253
  2409.002,    -0.621360
  2409.052,    -1.473333
  2409.102,    -2.329924
  2409.152,    -3.143919
  2409.202,    -3.914641
  2409.252,    -4.603045
  2409.302,    -5.190729
  2409.352,    -5.640331
  2409.402,    -5.930230
  2409.452,    -6.026140
  2409.502,    -5.917220
  2409.552,    -5.627430
  2409.602,    -5.126517
  2409.652,    -4.465950
  2409.702,    -3.668182
  2409.752,    -2.785798
  2409.802,    -1.850368
  2409.852,    -0.929719
  2409.902,    -0.084024
