Time_abs/ps, Signal/nA
  2370.000,    -0.171758
  2370.050,    -0.115947
  2370.100,    -0.066231
  2370.150,    -0.005538
  2370.200,     0.045294
  2370.250,     0.072794
  2370.300,     0.101683
  2370.350,     0.131985
  2370.400,     0.151336
  2370.450,     0.147773
  2370.500,     0.144608
  2370.550,     0.125406
  2370.600,     0.093460
  2370.650,     0.060802
  2370.700,     0.023241
  2370.750,    -0.041137
  2370.800,    -0.095767
  2370.850,    -0.140038
  2370.900,    -0.205737
  2370.950,    -0.256231
  2371.000,    -0.310770
  2371.050,    -0.356620
  2371.100,    -0.401431
  2371.150,    -0.449831
  2371.200,    -0.486949
  2371.250,    -0.513344
  2371.300,    -0.548360
  2371.350,    -0.566144
  2371.400,    -0.581313
  2371.450,    -0.595068
  2371.500,    -0.611972
  2371.550,    -0.606105
  2371.600,    -0.606199
  2371.650,    -0.604011
  2371.700,    -0.601493
  2371.750,    -0.587299
  2371.800,    -0.577127
  2371.850,    -0.565697
  2371.900,    -0.553289
  2371.950,    -0.544111
  2372.000,    -0.521861
  2372.050,    -0.495230
  2372.100,    -0.479210
  2372.150,    -0.471105
  2372.200,    -0.446701
  2372.250,    -0.427954
  2372.300,    -0.418582
  2372.350,    -0.401637
  2372.400,    -0.382037
  2372.450,    -0.366645
  2372.500,    -0.357567
  2372.550,    -0.338564
  2372.600,    -0.328444
  2372.650,    -0.311942
  2372.700,    -0.304242
  2372.750,    -0.287400
  2372.800,    -0.278615
  2372.850,    -0.265919
  2372.900,    -0.248241
  2372.950,    -0.230988
  2373.000,    -0.213907
  2373.050,    -0.201388
  2373.100,    -0.193774
  2373.150,    -0.185320
  2373.200,    -0.168669
  2373.250,    -0.147878
  2373.300,    -0.135935
  2373.350,    -0.120131
  2373.400,    -0.105911
  2373.450,    -0.070847
  2373.500,    -0.062316
  2373.550,    -0.041114
  2373.600,    -0.016918
  2373.650,     0.025338
  2373.700,     0.054596
  2373.750,     0.085392
  2373.800,     0.129730
  2373.850,     0.164442
  2373.900,     0.216781
  2373.950,     0.270429
  2374.000,     0.328924
  2374.050,     0.380111
  2374.100,     0.441216
  2374.150,     0.498786
  2374.200,     0.571860
  2374.250,     0.638860
  2374.300,     0.712494
  2374.350,     0.788000
  2374.400,     0.862250
  2374.450,     0.939442
  2374.500,     1.009713
  2374.550,     1.072322
  2374.600,     1.145964
  2374.650,     1.205895
  2374.700,     1.254010
  2374.750,     1.305992
  2374.800,     1.344193
  2374.850,     1.368426
  2374.900,     1.391437
  2374.950,     1.395488
  2375.000,     1.386806
  2375.050,     1.351287
  2375.100,     1.301439
  2375.150,     1.217825
  2375.200,     1.112158
  2375.250,     0.978778
  2375.300,     0.805580
  2375.350,     0.582610
  2375.400,     0.337664
  2375.450,     0.030471
  2375.500,    -0.324459
  2375.550,    -0.742606
  2375.600,    -1.211436
  2375.650,    -1.756786
  2375.700,    -2.371962
  2375.750,    -3.068036
  2375.800,    -3.832736
  2375.850,    -4.692009
  2375.900,    -5.653331
  2375.950,    -6.704163
  2376.000,    -7.869355
  2376.050,    -9.158580
  2376.100,   -10.579079
  2376.150,   -12.138052
  2376.200,   -13.829310
  2376.250,   -15.676359
  2376.300,   -17.675978
  2376.350,   -19.830607
  2376.400,   -22.148312
  2376.450,   -24.601238
  2376.500,   -27.186813
  2376.550,   -29.872485
  2376.600,   -32.617822
  2376.650,   -35.353510
  2376.700,   -37.996151
  2376.750,   -40.439610
  2376.800,   -42.553907
  2376.850,   -44.184191
  2376.900,   -45.182357
  2376.950,   -45.366505
  2377.000,   -44.524536
  2377.050,   -42.481170
  2377.100,   -39.083752
  2377.150,   -34.169661
  2377.200,   -27.639848
  2377.250,   -19.449433
  2377.300,    -9.618684
  2377.350,     1.781325
  2377.400,    14.575494
  2377.450,    28.524333
  2377.500,    43.310015
  2377.550,    58.533248
  2377.600,    73.746169
  2377.650,    88.464740
  2377.700,   102.178990
  2377.750,   114.371737
  2377.800,   124.579219
  2377.850,   132.374509
  2377.900,   137.365381
  2377.950,   139.309955
  2378.000,   138.055028
  2378.050,   133.547160
  2378.100,   125.895852
  2378.150,   115.289281
  2378.201,   102.061373
  2378.251,    86.589805
  2378.301,    69.377109
  2378.351,    50.931582
  2378.401,    31.801514
  2378.451,    12.542387
  2378.501,    -6.314426
  2378.551,   -24.290303
  2378.601,   -40.952301
  2378.651,   -55.923460
  2378.701,   -68.920443
  2378.751,   -79.738733
  2378.801,   -88.272860
  2378.851,   -94.460463
  2378.901,   -98.354762
  2378.951,  -100.074984
  2379.001,   -99.768849
  2379.051,   -97.686342
  2379.101,   -94.036602
  2379.151,   -89.117058
  2379.201,   -83.182788
  2379.251,   -76.506960
  2379.301,   -69.318598
  2379.351,   -61.861278
  2379.401,   -54.313990
  2379.451,   -46.852486
  2379.501,   -39.608395
  2379.551,   -32.678727
  2379.601,   -26.148854
  2379.651,   -20.062456
  2379.701,   -14.470147
  2379.751,    -9.349234
  2379.801,    -4.754163
  2379.851,    -0.654992
  2379.901,     2.979051
  2379.951,     6.129723
  2380.001,     8.849892
  2380.051,    11.170466
  2380.101,    13.107376
  2380.151,    14.678974
  2380.201,    15.934680
  2380.251,    16.884600
  2380.301,    17.581654
  2380.351,    18.056700
  2380.401,    18.340221
  2380.451,    18.435146
  2380.501,    18.383851
  2380.551,    18.201186
  2380.601,    17.892057
  2380.651,    17.458743
  2380.701,    16.930911
  2380.751,    16.281551
  2380.801,    15.533002
  2380.851,    14.673528
  2380.901,    13.713988
  2380.951,    12.653877
  2381.001,    11.491146
  2381.051,    10.246834
  2381.101,     8.936818
  2381.151,     7.570626
  2381.201,     6.186458
  2381.251,     4.786740
  2381.301,     3.413618
  2381.351,     2.100379
  2381.401,     0.873300
  2381.451,    -0.245425
  2381.501,    -1.232862
  2381.551,    -2.062925
  2381.601,    -2.728173
  2381.651,    -3.211939
  2381.701,    -3.511075
  2381.751,    -3.614515
  2381.801,    -3.527946
  2381.851,    -3.278146
  2381.901,    -2.840516
  2381.951,    -2.256090
  2382.001,    -1.542526
  2382.051,    -0.718274
  2382.101,     0.177120
  2382.151,     1.123371
  2382.201,     2.086373
  2382.251,     3.008079
  2382.301,     3.877409
  2382.351,     4.635542
  2382.401,     5.253226
  2382.451,     5.703057
  2382.501,     5.959475
  2382.551,     6.003160
  2382.601,     5.833519
  2382.651,     5.419029
  2382.701,     4.782501
  2382.751,     3.941165
  2382.801,     2.935363
  2382.851,     1.752516
  2382.901,     0.464193
  2382.951,    -0.886121
  2383.001,    -2.268968
  2383.051,    -3.604309
  2383.101,    -4.847492
  2383.151,    -5.971259
  2383.201,    -6.894898
  2383.251,    -7.615393
  2383.301,    -8.069351
  2383.351,    -8.265996
  2383.401,    -8.180478
  2383.451,    -7.822311
  2383.501,    -7.209828
  2383.551,    -6.371957
  2383.601,    -5.345016
  2383.651,    -4.175750
  2383.701,    -2.897504
  2383.751,    -1.569329
  2383.801,    -0.245716
  2383.851,     1.030108
  2383.901,     2.199239
  2383.951,     3.243140
  2384.001,     4.118524
  2384.051,     4.794221
  2384.101,     5.257092
  2384.151,     5.520998
  2384.201,     5.561809
  2384.251,     5.403322
  2384.301,     5.049853
  2384.351,     4.507310
  2384.401,     3.830793
  2384.451,     3.026967
  2384.501,     2.134810
  2384.551,     1.176561
  2384.601,     0.185318
  2384.651,    -0.797605
  2384.701,    -1.754699
  2384.751,    -2.642002
  2384.801,    -3.453443
  2384.851,    -4.164965
  2384.901,    -4.731621
  2384.951,    -5.157633
  2385.001,    -5.430006
  2385.051,    -5.544991
  2385.101,    -5.508907
  2385.151,    -5.306640
  2385.201,    -4.952277
  2385.251,    -4.499166
  2385.301,    -3.909181
  2385.351,    -3.247313
  2385.401,    -2.499888
  2385.451,    -1.728979
  2385.501,    -0.945173
  2385.551,    -0.160883
  2385.601,     0.582561
  2385.651,     1.271658
  2385.701,     1.902220
  2385.751,     2.447554
  2385.801,     2.920045
  2385.851,     3.302856
  2385.901,     3.597381
  2385.951,     3.775526
  2386.001,     3.889169
  2386.051,     3.929234
  2386.101,     3.882125
  2386.151,     3.771739
  2386.201,     3.593513
  2386.251,     3.355063
  2386.301,     3.049740
  2386.351,     2.685113
  2386.401,     2.262201
  2386.451,     1.763079
  2386.501,     1.217041
  2386.551,     0.612224
  2386.601,    -0.032987
  2386.651,    -0.695445
  2386.701,    -1.349738
  2386.751,    -2.010265
  2386.801,    -2.609528
  2386.851,    -3.143186
  2386.901,    -3.577416
  2386.951,    -3.889997
  2387.001,    -4.060656
  2387.051,    -4.052257
  2387.101,    -3.892137
  2387.151,    -3.553453
  2387.201,    -3.037676
  2387.251,    -2.367270
  2387.301,    -1.559512
  2387.351,    -0.639893
  2387.401,     0.357846
  2387.451,     1.390386
  2387.501,     2.428358
  2387.551,     3.438980
  2387.601,     4.364186
  2387.651,     5.175226
  2387.701,     5.850149
  2387.751,     6.365575
  2387.801,     6.671612
  2387.851,     6.793605
  2387.901,     6.706964
  2387.951,     6.427670
  2388.001,     5.950465
  2388.051,     5.284204
  2388.101,     4.472869
  2388.151,     3.528336
  2388.201,     2.472984
  2388.251,     1.336017
  2388.301,     0.157457
  2388.351,    -1.037930
  2388.401,    -2.186939
  2388.451,    -3.274416
  2388.501,    -4.278401
  2388.551,    -5.150970
  2388.601,    -5.864734
  2388.651,    -6.419753
  2388.701,    -6.770254
  2388.751,    -6.909785
  2388.801,    -6.834936
  2388.851,    -6.547444
  2388.901,    -6.055968
  2388.951,    -5.364845
  2389.001,    -4.515372
  2389.051,    -3.533209
  2389.101,    -2.455110
  2389.151,    -1.327267
  2389.201,    -0.180576
  2389.251,     0.918032
  2389.301,     1.938891
  2389.351,     2.843024
  2389.401,     3.588809
  2389.451,     4.162590
  2389.501,     4.547837
  2389.551,     4.732121
  2389.601,     4.723730
  2389.651,     4.534469
  2389.701,     4.171219
  2389.751,     3.678066
  2389.801,     3.073455
  2389.851,     2.401164
  2389.901,     1.665243
  2389.951,     0.922530
  2390.001,     0.176341
  2390.051,    -0.537101
  2390.101,    -1.211807
  2390.151,    -1.830233
  2390.201,    -2.367189
  2390.251,    -2.839210
  2390.301,    -3.237645
  2390.351,    -3.566352
  2390.401,    -3.799446
  2390.451,    -3.951701
  2390.501,    -4.024005
  2390.551,    -4.020970
  2390.601,    -3.926533
  2390.651,    -3.758185
  2390.701,    -3.503931
  2390.751,    -3.176977
  2390.801,    -2.778841
  2390.851,    -2.333884
  2390.901,    -1.830516
  2390.951,    -1.285277
  2391.001,    -0.719857
  2391.051,    -0.148929
  2391.101,     0.430703
  2391.151,     0.983223
  2391.201,     1.515815
  2391.251,     1.985682
  2391.301,     2.411685
  2391.351,     2.763558
  2391.401,     3.048109
  2391.451,     3.227201
  2391.501,     3.323924
  2391.551,     3.311657
  2391.601,     3.205138
  2391.651,     3.000888
  2391.701,     2.689667
  2391.751,     2.288360
  2391.801,     1.777695
  2391.851,     1.192347
  2391.901,     0.533787
  2391.951,    -0.202338
  2392.001,    -0.961421
  2392.051,    -1.744188
  2392.101,    -2.516443
  2392.151,    -3.252536
  2392.201,    -3.925151
  2392.251,    -4.500568
  2392.301,    -4.949743
  2392.351,    -5.257357
  2392.401,    -5.387018
  2392.451,    -5.357920
  2392.501,    -5.124103
  2392.551,    -4.728306
  2392.601,    -4.158656
  2392.651,    -3.432304
  2392.701,    -2.584771
  2392.751,    -1.659109
  2392.801,    -0.673334
  2392.851,     0.337043
  2392.901,     1.310568
  2392.951,     2.223315
  2393.001,     3.052832
  2393.051,     3.747686
  2393.101,     4.292234
  2393.151,     4.674868
  2393.201,     4.891692
  2393.251,     4.917026
  2393.301,     4.772240
  2393.351,     4.448939
  2393.401,     3.978123
  2393.451,     3.363242
  2393.501,     2.627492
  2393.551,     1.786036
  2393.601,     0.891342
  2393.651,    -0.060690
  2393.701,    -1.012877
  2393.751,    -1.951884
  2393.801,    -2.848698
  2393.851,    -3.664428
  2393.901,    -4.364058
  2393.951,    -4.940413
  2394.001,    -5.360521
  2394.051,    -5.610027
  2394.101,    -5.679042
  2394.151,    -5.551344
  2394.201,    -5.241154
  2394.251,    -4.756150
  2394.301,    -4.112473
  2394.351,    -3.350425
  2394.401,    -2.487681
  2394.451,    -1.563613
  2394.501,    -0.617869
  2394.551,     0.324880
  2394.602,     1.213617
  2394.652,     2.016663
  2394.702,     2.715363
  2394.752,     3.281571
  2394.802,     3.716329
  2394.852,     3.979933
  2394.902,     4.095689
  2394.952,     4.070243
  2395.002,     3.913039
  2395.052,     3.621022
  2395.102,     3.245206
  2395.152,     2.778841
  2395.202,     2.256125
  2395.252,     1.694852
  2395.302,     1.101120
  2395.352,     0.503769
  2395.402,    -0.080851
  2395.452,    -0.648407
  2395.502,    -1.185786
  2395.552,    -1.686230
  2395.602,    -2.122454
  2395.652,    -2.525695
  2395.702,    -2.877379
  2395.752,    -3.173943
  2395.802,    -3.389460
  2395.852,    -3.534764
  2395.902,    -3.609953
  2395.952,    -3.595773
  2396.002,    -3.517693
  2396.052,    -3.358890
  2396.102,    -3.109770
  2396.152,    -2.788578
  2396.202,    -2.394326
  2396.252,    -1.943656
  2396.302,    -1.436849
  2396.352,    -0.897712
  2396.402,    -0.331440
  2396.452,     0.250654
  2396.502,     0.820912
  2396.552,     1.377913
  2396.602,     1.892498
  2396.652,     2.349905
  2396.702,     2.751197
  2396.752,     3.071133
  2396.802,     3.293469
  2396.852,     3.422229
  2396.902,     3.445472
  2396.952,     3.365841
  2397.002,     3.170511
  2397.052,     2.872432
  2397.102,     2.462816
  2397.152,     1.958776
  2397.202,     1.380216
  2397.252,     0.708609
  2397.302,     0.017017
  2397.352,    -0.727654
  2397.402,    -1.464565
  2397.452,    -2.195255
  2397.502,    -2.894954
  2397.552,    -3.533722
  2397.602,    -4.067719
  2397.652,    -4.508360
  2397.702,    -4.830317
  2397.752,    -5.022474
  2397.802,    -5.052147
  2397.852,    -4.946797
  2397.902,    -4.669512
  2397.952,    -4.261209
  2398.002,    -3.713279
  2398.052,    -3.053335
  2398.102,    -2.300530
  2398.152,    -1.457789
  2398.202,    -0.573112
  2398.252,     0.323007
  2398.302,     1.205293
  2398.352,     2.041941
  2398.402,     2.801025
  2398.452,     3.469279
  2398.502,     4.000388
  2398.552,     4.402006
  2398.602,     4.631675
  2398.652,     4.688450
  2398.702,     4.583767
  2398.752,     4.309545
  2398.802,     3.897268
  2398.852,     3.339892
  2398.902,     2.675734
  2398.952,     1.934363
  2399.002,     1.130031
  2399.052,     0.313939
  2399.102,    -0.516981
  2399.152,    -1.280586
  2399.202,    -1.990201
  2399.252,    -2.599259
  2399.302,    -3.108884
  2399.352,    -3.494845
  2399.402,    -3.727776
  2399.452,    -3.830679
  2399.502,    -3.794122
  2399.552,    -3.629664
  2399.602,    -3.348920
  2399.652,    -2.952240
  2399.702,    -2.474894
  2399.752,    -1.944713
  2399.802,    -1.376125
  2399.852,    -0.772348
  2399.902,    -0.161942
  2399.952,     0.414611
  2400.002,     0.965567
  2400.052,     1.471373
  2400.102,     1.901207
  2400.152,     2.267063
  2400.202,     2.556234
  2400.252,     2.768313
  2400.302,     2.887672
  2400.352,     2.926610
  2400.402,     2.886167
  2400.452,     2.761235
  2400.502,     2.578674
  2400.552,     2.323700
  2400.602,     2.012134
  2400.652,     1.656766
  2400.702,     1.259424
  2400.752,     0.844394
  2400.802,     0.419183
  2400.852,    -0.023454
  2400.902,    -0.447863
  2400.952,    -0.857272
  2401.002,    -1.239405
  2401.052,    -1.588620
  2401.102,    -1.893463
  2401.152,    -2.139923
  2401.202,    -2.345168
  2401.252,    -2.481156
  2401.302,    -2.574803
  2401.352,    -2.613307
  2401.402,    -2.584840
  2401.452,    -2.508189
  2401.502,    -2.385701
  2401.552,    -2.196478
  2401.602,    -1.974256
  2401.652,    -1.703969
  2401.702,    -1.394726
  2401.752,    -1.053268
  2401.802,    -0.691348
  2401.852,    -0.302250
  2401.902,     0.096590
  2401.952,     0.491992
  2402.002,     0.880980
  2402.052,     1.248068
  2402.102,     1.578214
  2402.152,     1.868129
  2402.202,     2.095625
  2402.252,     2.231379
  2402.302,     2.313989
  2402.352,     2.301117
  2402.402,     2.198326
  2402.452,     2.005303
  2402.502,     1.713865
  2402.552,     1.357212
  2402.602,     0.923596
  2402.652,     0.440109
  2402.702,    -0.088984
  2402.752,    -0.648729
  2402.802,    -1.212324
  2402.852,    -1.755424
  2402.902,    -2.259492
  2402.952,    -2.724239
  2403.002,    -3.106028
  2403.052,    -3.402467
  2403.102,    -3.589433
  2403.152,    -3.666487
  2403.202,    -3.626707
  2403.252,    -3.470442
  2403.302,    -3.200748
  2403.352,    -2.831123
  2403.402,    -2.352920
  2403.452,    -1.791416
  2403.502,    -1.175329
  2403.552,    -0.518489
  2403.602,     0.139893
  2403.652,     0.792221
  2403.702,     1.409334
  2403.752,     1.961226
  2403.802,     2.433725
  2403.852,     2.812085
  2403.902,     3.069551
  2403.952,     3.205364
  2404.002,     3.209877
  2404.052,     3.088439
  2404.102,     2.846174
  2404.152,     2.486382
  2404.202,     2.033777
  2404.252,     1.509900
  2404.302,     0.928304
  2404.352,     0.310182
  2404.402,    -0.311029
  2404.452,    -0.921257
  2404.502,    -1.495520
  2404.552,    -2.023946
  2404.602,    -2.482802
  2404.652,    -2.857073
  2404.702,    -3.149107
  2404.752,    -3.348182
  2404.802,    -3.450004
  2404.852,    -3.463427
  2404.902,    -3.388649
  2404.952,    -3.237618
  2405.002,    -3.008094
  2405.052,    -2.723043
  2405.102,    -2.388367
  2405.152,    -2.022504
  2405.202,    -1.631384
  2405.252,    -1.220932
  2405.302,    -0.800887
  2405.352,    -0.404550
  2405.402,    -0.027840
  2405.452,     0.319384
  2405.502,     0.628816
  2405.552,     0.891102
  2405.602,     1.111487
  2405.652,     1.270369
  2405.702,     1.359217
  2405.752,     1.394650
  2405.802,     1.369592
  2405.852,     1.293138
  2405.902,     1.145056
  2405.952,     0.966785
  2406.002,     0.737112
  2406.052,     0.482794
  2406.102,     0.210586
  2406.152,    -0.086603
  2406.202,    -0.396456
  2406.252,    -0.697942
  2406.302,    -0.998960
  2406.352,    -1.279320
  2406.402,    -1.552549
  2406.452,    -1.799986
  2406.502,    -2.022025
  2406.552,    -2.196679
  2406.602,    -2.356234
  2406.652,    -2.475595
  2406.702,    -2.549379
  2406.752,    -2.578345
  2406.802,    -2.571001
  2406.852,    -2.503148
  2406.902,    -2.389526
  2406.952,    -2.240107
  2407.002,    -2.027317
  2407.052,    -1.760175
  2407.102,    -1.437126
  2407.152,    -1.074378
  2407.202,    -0.686211
  2407.252,    -0.259897
  2407.302,     0.183578
  2407.352,     0.649782
  2407.402,     1.094240
  2407.452,     1.527905
  2407.502,     1.933581
  2407.552,     2.273166
  2407.602,     2.568013
  2407.652,     2.773510
  2407.702,     2.910159
  2407.752,     2.941900
  2407.802,     2.888630
  2407.852,     2.731202
  2407.902,     2.476709
  2407.952,     2.151139
  2408.002,     1.741238
  2408.052,     1.283446
  2408.102,     0.804115
  2408.152,     0.296290
  2408.202,    -0.209660
  2408.252,    -0.670887
  2408.302,    -1.107191
  2408.352,    -1.445476
  2408.402,    -1.730811
  2408.452,    -1.904957
  2408.502,    -1.968324
  2408.552,    -1.937580
  2408.602,    -1.808064
  2408.652,    -1.579620
  2408.702,    -1.259316
  2408.752,    -0.872376
  2408.802,    -0.415591
  2408.852,     0.070969
  2408.902,     0.577502
  2408.952,     1.089493
  2409.002,     1.559345
  2409.052,     1.995126
  2409.102,     2.382513
  2409.152,     2.693461
  2409.202,     2.924288
  2409.252,     3.062777
  2409.302,     3.108380
  2409.352,     3.039407
  2409.402,     2.878206
  2409.452,     2.629647
  2409.502,     2.267688
  2409.552,     1.832091
  2409.602,     1.316207
  2409.652,     0.750963
  2409.702,     0.132985
  2409.752,    -0.487504
  2409.802,    -1.124704
  2409.852,    -1.742916
  2409.902,    -2.334789
