Time_abs/ps, Signal/nA
  2370.000,    -0.130050
  2370.050,    -0.117482
  2370.100,    -0.109159
  2370.150,    -0.086969
  2370.200,    -0.064512
  2370.250,    -0.056659
  2370.300,    -0.035335
  2370.350,    -0.020651
  2370.400,    -0.006661
  2370.450,     0.001254
  2370.500,     0.010461
  2370.550,     0.013882
  2370.600,     0.027714
  2370.650,     0.036915
  2370.700,     0.051904
  2370.750,     0.062165
  2370.800,     0.083209
  2370.850,     0.097247
  2370.900,     0.111544
  2370.950,     0.131181
  2371.000,     0.142809
  2371.050,     0.164373
  2371.100,     0.188219
  2371.150,     0.219078
  2371.200,     0.237098
  2371.250,     0.253769
  2371.300,     0.267228
  2371.350,     0.293185
  2371.400,     0.311501
  2371.450,     0.324332
  2371.500,     0.333660
  2371.550,     0.336079
  2371.600,     0.353644
  2371.650,     0.366361
  2371.700,     0.374431
  2371.750,     0.383486
  2371.800,     0.400501
  2371.850,     0.427136
  2371.900,     0.432510
  2371.950,     0.460767
  2372.000,     0.478507
  2372.050,     0.486800
  2372.100,     0.503419
  2372.150,     0.510967
  2372.200,     0.526445
  2372.250,     0.553231
  2372.300,     0.568585
  2372.350,     0.587797
  2372.400,     0.615555
  2372.450,     0.647660
  2372.500,     0.680775
  2372.550,     0.727130
  2372.600,     0.776109
  2372.650,     0.823360
  2372.700,     0.883995
  2372.750,     0.949379
  2372.800,     1.020177
  2372.850,     1.102694
  2372.900,     1.179808
  2372.950,     1.260536
  2373.000,     1.331774
  2373.050,     1.418053
  2373.100,     1.505651
  2373.150,     1.590747
  2373.200,     1.671814
  2373.250,     1.755600
  2373.300,     1.824796
  2373.350,     1.893095
  2373.400,     1.962167
  2373.450,     2.025248
  2373.500,     2.064412
  2373.550,     2.115027
  2373.600,     2.138130
  2373.650,     2.156697
  2373.700,     2.157871
  2373.750,     2.139364
  2373.800,     2.100591
  2373.850,     2.048767
  2373.900,     1.960212
  2373.950,     1.829949
  2374.000,     1.675953
  2374.050,     1.485697
  2374.100,     1.249717
  2374.150,     0.957688
  2374.200,     0.624581
  2374.250,     0.224339
  2374.300,    -0.248110
  2374.350,    -0.783665
  2374.400,    -1.407337
  2374.450,    -2.113082
  2374.500,    -2.913102
  2374.550,    -3.793983
  2374.600,    -4.776874
  2374.650,    -5.858565
  2374.700,    -7.048405
  2374.750,    -8.358164
  2374.800,    -9.791487
  2374.850,   -11.352996
  2374.900,   -13.059683
  2374.950,   -14.908636
  2375.000,   -16.925385
  2375.050,   -19.113673
  2375.100,   -21.487094
  2375.150,   -24.079695
  2375.200,   -26.872328
  2375.250,   -29.910234
  2375.300,   -33.178223
  2375.350,   -36.655509
  2375.400,   -40.323091
  2375.450,   -44.125569
  2375.500,   -47.949741
  2375.550,   -51.678129
  2375.600,   -55.118818
  2375.650,   -58.006248
  2375.700,   -60.041556
  2375.750,   -60.838107
  2375.800,   -59.978819
  2375.850,   -57.028082
  2375.900,   -51.524290
  2375.950,   -43.055425
  2376.000,   -31.297113
  2376.050,   -16.065359
  2376.100,     2.691394
  2376.150,    24.748204
  2376.200,    49.667041
  2376.250,    76.741130
  2376.300,   105.014650
  2376.350,   133.290732
  2376.400,   160.231778
  2376.450,   184.405066
  2376.500,   204.311166
  2376.550,   218.639367
  2376.600,   226.259645
  2376.650,   226.415324
  2376.700,   218.784616
  2376.750,   203.515573
  2376.800,   181.183815
  2376.850,   152.852300
  2376.900,   119.862943
  2376.950,    83.794872
  2377.000,    46.308587
  2377.050,     9.027012
  2377.100,   -26.510659
  2377.150,   -59.012402
  2377.200,   -87.393873
  2377.250,  -110.864801
  2377.300,  -128.922965
  2377.350,  -141.373824
  2377.400,  -148.295396
  2377.450,  -150.068666
  2377.500,  -147.232482
  2377.550,  -140.518706
  2377.600,  -130.751289
  2377.650,  -118.797413
  2377.700,  -105.518153
  2377.750,   -91.706016
  2377.800,   -78.079509
  2377.850,   -65.246666
  2377.900,   -53.669610
  2377.950,   -43.643716
  2378.000,   -35.336777
  2378.050,   -28.727900
  2378.100,   -23.716900
  2378.150,   -20.036999
  2378.201,   -17.414554
  2378.251,   -15.442380
  2378.301,   -13.760227
  2378.351,   -12.056827
  2378.401,   -10.029898
  2378.451,    -7.522237
  2378.501,    -4.454065
  2378.551,    -0.839409
  2378.601,     3.192402
  2378.651,     7.444240
  2378.701,    11.683237
  2378.751,    15.646546
  2378.801,    19.100785
  2378.851,    21.860849
  2378.901,    23.782349
  2378.951,    24.825533
  2379.001,    25.012749
  2379.051,    24.477124
  2379.101,    23.363665
  2379.151,    21.890453
  2379.201,    20.263959
  2379.251,    18.686471
  2379.301,    17.335100
  2379.351,    16.325111
  2379.401,    15.691498
  2379.451,    15.424575
  2379.501,    15.437570
  2379.551,    15.577429
  2379.601,    15.709233
  2379.651,    15.656603
  2379.701,    15.242493
  2379.751,    14.354845
  2379.801,    12.907422
  2379.851,    10.886946
  2379.901,     8.344728
  2379.951,     5.417722
  2380.001,     2.277669
  2380.051,    -0.910107
  2380.101,    -3.908440
  2380.151,    -6.538972
  2380.201,    -8.642315
  2380.251,   -10.099988
  2380.301,   -10.850027
  2380.351,   -10.899949
  2380.401,   -10.318759
  2380.451,    -9.189016
  2380.501,    -7.637738
  2380.551,    -5.809961
  2380.601,    -3.839001
  2380.651,    -1.808995
  2380.701,     0.178790
  2380.751,     2.063290
  2380.801,     3.823005
  2380.851,     5.437326
  2380.901,     6.906648
  2380.951,     8.213404
  2381.001,     9.371023
  2381.051,    10.338455
  2381.101,    11.064754
  2381.151,    11.524909
  2381.201,    11.648384
  2381.251,    11.378725
  2381.301,    10.694793
  2381.351,     9.566015
  2381.401,     8.002433
  2381.451,     6.022454
  2381.501,     3.718584
  2381.551,     1.139990
  2381.601,    -1.567054
  2381.651,    -4.327891
  2381.701,    -6.987871
  2381.751,    -9.436734
  2381.801,   -11.578951
  2381.851,   -13.310621
  2381.901,   -14.540483
  2381.951,   -15.236723
  2382.001,   -15.330859
  2382.051,   -14.850847
  2382.101,   -13.778666
  2382.151,   -12.173131
  2382.201,   -10.083540
  2382.251,    -7.590688
  2382.301,    -4.820343
  2382.351,    -1.887403
  2382.401,     1.065577
  2382.451,     3.896486
  2382.501,     6.451528
  2382.551,     8.630141
  2382.601,    10.339685
  2382.651,    11.484147
  2382.701,    12.077626
  2382.751,    12.092577
  2382.801,    11.588676
  2382.851,    10.653560
  2382.901,     9.367569
  2382.951,     7.824589
  2383.001,     6.145901
  2383.051,     4.428867
  2383.101,     2.752844
  2383.151,     1.182412
  2383.201,    -0.261656
  2383.251,    -1.545117
  2383.301,    -2.664680
  2383.351,    -3.656611
  2383.401,    -4.513075
  2383.451,    -5.260067
  2383.501,    -5.924155
  2383.551,    -6.488240
  2383.601,    -6.946261
  2383.651,    -7.296306
  2383.701,    -7.476081
  2383.751,    -7.472433
  2383.801,    -7.257264
  2383.851,    -6.807130
  2383.901,    -6.109536
  2383.951,    -5.159577
  2384.001,    -4.015903
  2384.051,    -2.696702
  2384.101,    -1.275901
  2384.151,     0.205201
  2384.201,     1.655669
  2384.251,     3.003373
  2384.301,     4.173670
  2384.351,     5.131820
  2384.401,     5.831937
  2384.451,     6.246467
  2384.501,     6.377039
  2384.551,     6.249436
  2384.601,     5.912501
  2384.651,     5.416803
  2384.701,     4.805048
  2384.751,     4.172815
  2384.801,     3.560522
  2384.851,     3.038018
  2384.901,     2.624430
  2384.951,     2.379062
  2385.001,     2.259416
  2385.051,     2.254685
  2385.101,     2.319698
  2385.151,     2.389997
  2385.201,     2.384798
  2385.251,     2.231857
  2385.301,     1.866446
  2385.351,     1.242537
  2385.401,     0.324276
  2385.451,    -0.857574
  2385.501,    -2.233114
  2385.551,    -3.745881
  2385.601,    -5.285249
  2385.651,    -6.691252
  2385.701,    -7.835841
  2385.751,    -8.568483
  2385.801,    -8.804731
  2385.851,    -8.448114
  2385.901,    -7.498827
  2385.951,    -5.960232
  2386.001,    -3.886843
  2386.051,    -1.436460
  2386.101,     1.293808
  2386.151,     4.117414
  2386.201,     6.859565
  2386.251,     9.321409
  2386.301,    11.389700
  2386.351,    12.948890
  2386.401,    13.922488
  2386.451,    14.283438
  2386.501,    14.034981
  2386.551,    13.245506
  2386.601,    11.953969
  2386.651,    10.287629
  2386.701,     8.341215
  2386.751,     6.234688
  2386.801,     4.058137
  2386.851,     1.905182
  2386.901,    -0.147428
  2386.951,    -2.048440
  2387.001,    -3.765675
  2387.051,    -5.274151
  2387.101,    -6.587480
  2387.151,    -7.668283
  2387.201,    -8.549935
  2387.251,    -9.230798
  2387.301,    -9.698359
  2387.351,    -9.969054
  2387.401,   -10.000576
  2387.451,    -9.810410
  2387.501,    -9.366371
  2387.551,    -8.656879
  2387.601,    -7.672734
  2387.651,    -6.385416
  2387.701,    -4.796455
  2387.751,    -2.974717
  2387.801,    -0.920532
  2387.851,     1.246759
  2387.901,     3.484545
  2387.951,     5.679875
  2388.001,     7.687778
  2388.051,     9.412727
  2388.101,    10.717628
  2388.151,    11.529628
  2388.201,    11.763472
  2388.251,    11.406586
  2388.301,    10.467004
  2388.351,     9.013844
  2388.401,     7.131931
  2388.451,     4.967110
  2388.501,     2.674610
  2388.551,     0.427626
  2388.601,    -1.638468
  2388.651,    -3.375269
  2388.701,    -4.693576
  2388.751,    -5.545257
  2388.801,    -5.940807
  2388.851,    -5.908951
  2388.901,    -5.554352
  2388.951,    -4.960154
  2389.001,    -4.262633
  2389.051,    -3.577751
  2389.101,    -2.989466
  2389.151,    -2.582189
  2389.201,    -2.345847
  2389.251,    -2.326062
  2389.301,    -2.433395
  2389.351,    -2.616935
  2389.401,    -2.802774
  2389.451,    -2.896388
  2389.501,    -2.821067
  2389.551,    -2.524263
  2389.601,    -1.992242
  2389.651,    -1.227032
  2389.701,    -0.262325
  2389.751,     0.848568
  2389.801,     2.023215
  2389.851,     3.172199
  2389.901,     4.225363
  2389.951,     5.081046
  2390.001,     5.714496
  2390.051,     6.071192
  2390.101,     6.163132
  2390.151,     5.993151
  2390.201,     5.602253
  2390.251,     5.049391
  2390.301,     4.367245
  2390.351,     3.637183
  2390.401,     2.890347
  2390.451,     2.150056
  2390.501,     1.439243
  2390.551,     0.741776
  2390.601,     0.043187
  2390.651,    -0.685059
  2390.701,    -1.449480
  2390.751,    -2.309666
  2390.801,    -3.239058
  2390.851,    -4.236184
  2390.901,    -5.264525
  2390.951,    -6.274503
  2391.001,    -7.209559
  2391.051,    -7.958530
  2391.101,    -8.459329
  2391.151,    -8.603455
  2391.201,    -8.356099
  2391.251,    -7.664109
  2391.301,    -6.519399
  2391.351,    -4.944461
  2391.401,    -3.033531
  2391.451,    -0.845598
  2391.501,     1.469146
  2391.551,     3.776242
  2391.601,     5.940564
  2391.651,     7.825130
  2391.701,     9.306702
  2391.751,    10.315544
  2391.801,    10.793176
  2391.851,    10.751878
  2391.901,    10.212056
  2391.951,     9.246422
  2392.001,     7.943117
  2392.051,     6.407031
  2392.101,     4.755995
  2392.151,     3.082685
  2392.201,     1.481511
  2392.251,     0.008974
  2392.301,    -1.297713
  2392.351,    -2.465460
  2392.401,    -3.481544
  2392.451,    -4.398215
  2392.501,    -5.224818
  2392.551,    -5.979257
  2392.601,    -6.690189
  2392.651,    -7.322917
  2392.701,    -7.861426
  2392.751,    -8.234833
  2392.801,    -8.387690
  2392.851,    -8.243624
  2392.901,    -7.772601
  2392.951,    -6.915217
  2393.001,    -5.648559
  2393.051,    -4.017487
  2393.101,    -2.081537
  2393.151,     0.037547
  2393.201,     2.241539
  2393.251,     4.379604
  2393.301,     6.318673
  2393.351,     7.913188
  2393.401,     9.076758
  2393.451,     9.719612
  2393.501,     9.834805
  2393.551,     9.428705
  2393.601,     8.559390
  2393.651,     7.324416
  2393.701,     5.841133
  2393.751,     4.228766
  2393.801,     2.602515
  2393.851,     1.095596
  2393.901,    -0.224229
  2393.951,    -1.283375
  2394.001,    -2.066167
  2394.051,    -2.560443
  2394.101,    -2.804949
  2394.151,    -2.855796
  2394.201,    -2.773629
  2394.251,    -2.605270
  2394.301,    -2.449756
  2394.351,    -2.337493
  2394.401,    -2.313789
  2394.451,    -2.385625
  2394.501,    -2.578530
  2394.551,    -2.853641
  2394.602,    -3.156416
  2394.652,    -3.456957
  2394.702,    -3.704201
  2394.752,    -3.841468
  2394.802,    -3.821108
  2394.852,    -3.616676
  2394.902,    -3.195448
  2394.952,    -2.568124
  2395.002,    -1.763085
  2395.052,    -0.839326
  2395.102,     0.192909
  2395.152,     1.261944
  2395.202,     2.312794
  2395.252,     3.295643
  2395.302,     4.154085
  2395.352,     4.861207
  2395.402,     5.397635
  2395.452,     5.745497
  2395.502,     5.916029
  2395.552,     5.902909
  2395.602,     5.721200
  2395.652,     5.389383
  2395.702,     4.937981
  2395.752,     4.358169
  2395.802,     3.657463
  2395.852,     2.855381
  2395.902,     1.960134
  2395.952,     0.962315
  2396.002,    -0.103577
  2396.052,    -1.229504
  2396.102,    -2.382469
  2396.152,    -3.531151
  2396.202,    -4.641544
  2396.252,    -5.652562
  2396.302,    -6.519070
  2396.352,    -7.204737
  2396.402,    -7.657602
  2396.452,    -7.846519
  2396.502,    -7.747237
  2396.552,    -7.352474
  2396.602,    -6.656798
  2396.652,    -5.685947
  2396.702,    -4.467070
  2396.752,    -3.054410
  2396.802,    -1.500651
  2396.852,     0.127406
  2396.902,     1.775524
  2396.952,     3.377490
  2397.002,     4.879782
  2397.052,     6.215856
  2397.102,     7.336745
  2397.152,     8.241659
  2397.202,     8.863977
  2397.252,     9.170473
  2397.302,     9.174222
  2397.352,     8.856400
  2397.402,     8.230473
  2397.452,     7.312306
  2397.502,     6.087598
  2397.552,     4.651742
  2397.602,     3.046027
  2397.652,     1.302695
  2397.702,    -0.456116
  2397.752,    -2.182499
  2397.802,    -3.772072
  2397.852,    -5.152719
  2397.902,    -6.257878
  2397.952,    -7.033301
  2398.002,    -7.461172
  2398.052,    -7.513953
  2398.102,    -7.205988
  2398.152,    -6.571314
  2398.202,    -5.671539
  2398.252,    -4.576345
  2398.302,    -3.330216
  2398.352,    -2.036621
  2398.402,    -0.730340
  2398.452,     0.511307
  2398.502,     1.644836
  2398.552,     2.629703
  2398.602,     3.439938
  2398.652,     4.079774
  2398.702,     4.538889
  2398.752,     4.810181
  2398.802,     4.938299
  2398.852,     4.930297
  2398.902,     4.807795
  2398.952,     4.585754
  2399.002,     4.307804
  2399.052,     3.969908
  2399.102,     3.599270
  2399.152,     3.207163
  2399.202,     2.800096
  2399.252,     2.377520
  2399.302,     1.936851
  2399.352,     1.466615
  2399.402,     0.984541
  2399.452,     0.475546
  2399.502,    -0.055445
  2399.552,    -0.602564
  2399.602,    -1.153664
  2399.652,    -1.697534
  2399.702,    -2.195309
  2399.752,    -2.642787
  2399.802,    -3.009031
  2399.852,    -3.283266
  2399.902,    -3.453808
  2399.952,    -3.524514
  2400.002,    -3.490203
  2400.052,    -3.357655
  2400.102,    -3.145602
  2400.152,    -2.898643
  2400.202,    -2.617186
  2400.252,    -2.326797
  2400.302,    -2.044833
  2400.352,    -1.766281
  2400.402,    -1.491346
  2400.452,    -1.230726
  2400.502,    -0.946023
  2400.552,    -0.653570
  2400.602,    -0.301747
  2400.652,     0.079966
  2400.702,     0.545454
  2400.752,     1.065349
  2400.802,     1.628417
  2400.852,     2.236744
  2400.902,     2.812078
  2400.952,     3.380424
  2401.002,     3.854930
  2401.052,     4.212250
  2401.102,     4.424966
  2401.152,     4.443941
  2401.202,     4.284901
  2401.252,     3.917921
  2401.302,     3.367040
  2401.352,     2.674201
  2401.402,     1.860145
  2401.452,     0.993989
  2401.502,     0.092752
  2401.552,    -0.758307
  2401.602,    -1.537344
  2401.652,    -2.181377
  2401.702,    -2.691490
  2401.752,    -3.036153
  2401.802,    -3.186596
  2401.852,    -3.160181
  2401.902,    -2.973503
  2401.952,    -2.616361
  2402.002,    -2.106753
  2402.052,    -1.464678
  2402.102,    -0.714810
  2402.152,     0.105418
  2402.202,     0.998999
  2402.252,     1.921635
  2402.302,     2.825215
  2402.352,     3.688129
  2402.402,     4.444728
  2402.452,     5.096840
  2402.502,     5.545842
  2402.552,     5.808356
  2402.602,     5.837395
  2402.652,     5.609395
  2402.702,     5.141710
  2402.752,     4.419081
  2402.802,     3.491494
  2402.852,     2.367254
  2402.902,     1.137055
  2402.952,    -0.167925
  2403.002,    -1.495424
  2403.052,    -2.744070
  2403.102,    -3.871475
  2403.152,    -4.848482
  2403.202,    -5.614215
  2403.252,    -6.128697
  2403.302,    -6.394310
  2403.352,    -6.418538
  2403.402,    -6.209296
  2403.452,    -5.785570
  2403.502,    -5.189348
  2403.552,    -4.464050
  2403.602,    -3.670533
  2403.652,    -2.836350
  2403.702,    -2.018512
  2403.752,    -1.246090
  2403.802,    -0.539342
  2403.852,     0.079177
  2403.902,     0.599070
  2403.952,     1.038830
  2404.002,     1.399636
  2404.052,     1.718350
  2404.102,     1.977331
  2404.152,     2.194154
  2404.202,     2.374496
  2404.252,     2.534914
  2404.302,     2.665002
  2404.352,     2.729899
  2404.402,     2.748562
  2404.452,     2.670381
  2404.502,     2.526160
  2404.552,     2.268920
  2404.602,     1.910014
  2404.652,     1.475797
  2404.702,     0.949023
  2404.752,     0.380150
  2404.802,    -0.201731
  2404.852,    -0.783250
  2404.902,    -1.345377
  2404.952,    -1.835753
  2405.002,    -2.242983
  2405.052,    -2.557586
  2405.102,    -2.768983
  2405.152,    -2.904352
  2405.202,    -2.952037
  2405.252,    -2.940142
  2405.302,    -2.872923
  2405.352,    -2.770711
  2405.402,    -2.652553
  2405.452,    -2.544888
  2405.502,    -2.416431
  2405.552,    -2.297596
  2405.602,    -2.156180
  2405.652,    -1.998922
  2405.702,    -1.783505
  2405.752,    -1.516132
  2405.802,    -1.158337
  2405.852,    -0.728134
  2405.902,    -0.205254
  2405.952,     0.421092
  2406.002,     1.112530
  2406.052,     1.869165
  2406.102,     2.667816
  2406.152,     3.460295
  2406.202,     4.221372
  2406.252,     4.899996
  2406.302,     5.473005
  2406.352,     5.887314
  2406.402,     6.121917
  2406.452,     6.167048
  2406.502,     5.973926
  2406.552,     5.557228
  2406.602,     4.923018
  2406.652,     4.074690
  2406.702,     3.083459
  2406.752,     1.948846
  2406.802,     0.733383
  2406.852,    -0.483066
  2406.902,    -1.669295
  2406.952,    -2.739071
  2407.002,    -3.638853
  2407.052,    -4.304114
  2407.102,    -4.697309
  2407.152,    -4.818470
  2407.202,    -4.636905
  2407.252,    -4.163147
  2407.302,    -3.420504
  2407.352,    -2.474331
  2407.402,    -1.348798
  2407.452,    -0.141395
  2407.502,     1.096550
  2407.552,     2.299595
  2407.602,     3.402459
  2407.652,     4.368903
  2407.702,     5.132738
  2407.752,     5.685328
  2407.802,     6.031081
  2407.852,     6.156854
  2407.902,     6.078961
  2407.952,     5.820205
  2408.002,     5.419200
  2408.052,     4.884940
  2408.102,     4.249864
  2408.152,     3.543727
  2408.202,     2.774289
  2408.252,     1.964027
  2408.302,     1.120433
  2408.352,     0.240396
  2408.402,    -0.636552
  2408.452,    -1.525708
  2408.502,    -2.412626
  2408.552,    -3.279906
  2408.602,    -4.080012
  2408.652,    -4.801503
  2408.702,    -5.413492
  2408.752,    -5.865655
  2408.802,    -6.152846
  2408.852,    -6.245893
  2408.902,    -6.110883
  2408.952,    -5.786206
  2409.002,    -5.256715
  2409.052,    -4.553472
  2409.102,    -3.718437
  2409.152,    -2.782636
  2409.202,    -1.817106
  2409.252,    -0.876714
  2409.302,    -0.005010
  2409.352,     0.757859
  2409.402,     1.371594
  2409.452,     1.819588
  2409.502,     2.110607
  2409.552,     2.245744
  2409.602,     2.256383
  2409.652,     2.186033
  2409.702,     2.057893
  2409.752,     1.938164
  2409.802,     1.824947
  2409.852,     1.774060
  2409.902,     1.769028
