Time_abs/ps, Signal/nA
  2370.000,    -0.502936
  2370.050,    -0.469841
  2370.100,    -0.419243
  2370.150,    -0.363122
  2370.200,    -0.309592
  2370.250,    -0.241645
  2370.300,    -0.160338
  2370.350,    -0.088948
  2370.400,    -0.007222
  2370.450,     0.062655
  2370.500,     0.119097
  2370.550,     0.175728
  2370.600,     0.235043
  2370.650,     0.274352
  2370.700,     0.301450
  2370.750,     0.316870
  2370.800,     0.306820
  2370.850,     0.295542
  2370.900,     0.260382
  2370.950,     0.214948
  2371.000,     0.158379
  2371.050,     0.102266
  2371.100,     0.043141
  2371.150,    -0.032017
  2371.200,    -0.100060
  2371.250,    -0.163253
  2371.300,    -0.236970
  2371.350,    -0.295567
  2371.400,    -0.346606
  2371.450,    -0.407119
  2371.500,    -0.447246
  2371.550,    -0.475547
  2371.600,    -0.495669
  2371.650,    -0.514543
  2371.700,    -0.529937
  2371.750,    -0.525554
  2371.800,    -0.523290
  2371.850,    -0.518051
  2371.900,    -0.507159
  2371.950,    -0.495127
  2372.000,    -0.487715
  2372.050,    -0.471350
  2372.100,    -0.463982
  2372.150,    -0.449913
  2372.200,    -0.444956
  2372.250,    -0.431282
  2372.300,    -0.427056
  2372.350,    -0.416259
  2372.400,    -0.404966
  2372.450,    -0.407193
  2372.500,    -0.382984
  2372.550,    -0.371841
  2372.600,    -0.354682
  2372.650,    -0.340716
  2372.700,    -0.333222
  2372.750,    -0.319309
  2372.800,    -0.302900
  2372.850,    -0.281977
  2372.900,    -0.265356
  2372.950,    -0.251310
  2373.000,    -0.237974
  2373.050,    -0.218214
  2373.100,    -0.207111
  2373.150,    -0.195612
  2373.200,    -0.181869
  2373.250,    -0.164942
  2373.300,    -0.150353
  2373.350,    -0.133560
  2373.400,    -0.113128
  2373.450,    -0.101613
  2373.500,    -0.091575
  2373.550,    -0.082291
  2373.600,    -0.069568
  2373.650,    -0.040591
  2373.700,    -0.029308
  2373.750,    -0.006028
  2373.800,     0.017752
  2373.850,     0.038551
  2373.900,     0.060833
  2373.950,     0.091493
  2374.000,     0.118489
  2374.050,     0.154188
  2374.100,     0.183239
  2374.150,     0.225726
  2374.200,     0.268073
  2374.250,     0.326116
  2374.300,     0.370654
  2374.350,     0.438753
  2374.400,     0.489774
  2374.450,     0.552169
  2374.500,     0.633119
  2374.550,     0.694261
  2374.600,     0.772449
  2374.650,     0.845873
  2374.700,     0.919631
  2374.750,     0.996717
  2374.800,     1.076059
  2374.850,     1.149961
  2374.900,     1.224383
  2374.950,     1.294837
  2375.000,     1.348052
  2375.050,     1.405790
  2375.100,     1.453443
  2375.150,     1.487213
  2375.200,     1.514884
  2375.250,     1.529886
  2375.300,     1.527531
  2375.350,     1.498698
  2375.400,     1.471400
  2375.450,     1.416520
  2375.500,     1.328746
  2375.550,     1.221573
  2375.600,     1.094003
  2375.650,     0.914979
  2375.700,     0.708208
  2375.750,     0.450080
  2375.800,     0.150958
  2375.850,    -0.196312
  2375.900,    -0.594900
  2375.950,    -1.061346
  2376.000,    -1.590976
  2376.050,    -2.197308
  2376.100,    -2.882689
  2376.150,    -3.640578
  2376.200,    -4.498833
  2376.250,    -5.447292
  2376.300,    -6.498517
  2376.350,    -7.674259
  2376.400,    -8.954404
  2376.450,   -10.362393
  2376.500,   -11.895772
  2376.550,   -13.565977
  2376.600,   -15.396123
  2376.650,   -17.361033
  2376.700,   -19.487651
  2376.750,   -21.763720
  2376.800,   -24.197566
  2376.850,   -26.761803
  2376.900,   -29.451226
  2376.950,   -32.239144
  2377.000,   -35.073697
  2377.050,   -37.885588
  2377.100,   -40.586091
  2377.150,   -43.076769
  2377.200,   -45.228932
  2377.250,   -46.871232
  2377.300,   -47.821736
  2377.350,   -47.875112
  2377.400,   -46.816189
  2377.450,   -44.402225
  2377.500,   -40.417687
  2377.550,   -34.674833
  2377.600,   -26.990483
  2377.650,   -17.288949
  2377.700,    -5.541568
  2377.750,     8.208428
  2377.800,    23.763173
  2377.850,    40.836374
  2377.900,    59.016267
  2377.950,    77.789661
  2378.000,    96.535869
  2378.050,   114.537412
  2378.100,   131.019240
  2378.150,   145.220418
  2378.201,   156.411820
  2378.251,   163.899844
  2378.301,   167.173752
  2378.351,   165.851663
  2378.401,   159.772218
  2378.451,   149.031737
  2378.501,   133.920357
  2378.551,   114.945451
  2378.601,    92.815722
  2378.651,    68.367553
  2378.701,    42.527318
  2378.751,    16.279720
  2378.801,    -9.439772
  2378.851,   -33.725468
  2378.901,   -55.798562
  2378.951,   -75.022994
  2379.001,   -90.880766
  2379.051,  -103.072479
  2379.101,  -111.477297
  2379.151,  -116.154372
  2379.201,  -117.323107
  2379.251,  -115.363159
  2379.301,  -110.713374
  2379.351,  -103.943308
  2379.401,   -95.630997
  2379.451,   -86.326060
  2379.501,   -76.571562
  2379.551,   -66.844942
  2379.601,   -57.525338
  2379.651,   -48.934635
  2379.701,   -41.237026
  2379.751,   -34.534029
  2379.801,   -28.837274
  2379.851,   -24.082752
  2379.901,   -20.140951
  2379.951,   -16.842371
  2380.001,   -14.001707
  2380.051,   -11.471765
  2380.101,    -9.057510
  2380.151,    -6.632644
  2380.201,    -4.140715
  2380.251,    -1.517547
  2380.301,     1.231732
  2380.351,     4.071967
  2380.401,     6.908059
  2380.451,     9.668028
  2380.501,    12.250271
  2380.551,    14.560977
  2380.601,    16.502495
  2380.651,    18.038455
  2380.701,    19.111014
  2380.751,    19.757258
  2380.801,    19.984645
  2380.851,    19.835749
  2380.901,    19.395764
  2380.951,    18.726942
  2381.001,    17.924018
  2381.051,    17.054053
  2381.101,    16.155130
  2381.151,    15.262911
  2381.201,    14.412165
  2381.251,    13.570635
  2381.301,    12.733907
  2381.351,    11.848115
  2381.401,    10.885527
  2381.451,     9.797577
  2381.501,     8.554057
  2381.551,     7.159944
  2381.601,     5.607907
  2381.651,     3.940394
  2381.701,     2.182682
  2381.751,     0.422596
  2381.801,    -1.285145
  2381.851,    -2.854067
  2381.901,    -4.216252
  2381.951,    -5.302943
  2382.001,    -6.065292
  2382.051,    -6.470674
  2382.101,    -6.482034
  2382.151,    -6.156557
  2382.201,    -5.477289
  2382.251,    -4.517427
  2382.301,    -3.324007
  2382.351,    -1.947717
  2382.401,    -0.465781
  2382.451,     1.058566
  2382.501,     2.555887
  2382.551,     3.952538
  2382.601,     5.239228
  2382.651,     6.346368
  2382.701,     7.243886
  2382.751,     7.915353
  2382.801,     8.324372
  2382.851,     8.445838
  2382.901,     8.295973
  2382.951,     7.840303
  2383.001,     7.114539
  2383.051,     6.119573
  2383.101,     4.873073
  2383.151,     3.404295
  2383.201,     1.756282
  2383.251,    -0.028215
  2383.301,    -1.870693
  2383.351,    -3.714666
  2383.401,    -5.499124
  2383.451,    -7.140467
  2383.501,    -8.554643
  2383.551,    -9.715205
  2383.601,   -10.533105
  2383.651,   -10.984457
  2383.701,   -11.043286
  2383.751,   -10.686721
  2383.801,    -9.943266
  2383.851,    -8.828449
  2383.901,    -7.401597
  2383.951,    -5.724764
  2384.001,    -3.870569
  2384.051,    -1.895891
  2384.101,     0.074690
  2384.151,     1.955860
  2384.201,     3.711669
  2384.251,     5.216304
  2384.301,     6.458404
  2384.351,     7.350636
  2384.401,     7.889249
  2384.451,     8.082888
  2384.501,     7.941308
  2384.551,     7.470731
  2384.601,     6.725491
  2384.651,     5.757477
  2384.701,     4.654960
  2384.751,     3.423352
  2384.801,     2.146583
  2384.851,     0.880535
  2384.901,    -0.343814
  2384.951,    -1.478333
  2385.001,    -2.500414
  2385.051,    -3.398258
  2385.101,    -4.166809
  2385.151,    -4.788397
  2385.201,    -5.262554
  2385.251,    -5.607951
  2385.301,    -5.825748
  2385.351,    -5.898638
  2385.401,    -5.850014
  2385.451,    -5.659109
  2385.501,    -5.342252
  2385.551,    -4.911171
  2385.601,    -4.354746
  2385.651,    -3.675183
  2385.701,    -2.911662
  2385.751,    -2.071571
  2385.801,    -1.183286
  2385.851,    -0.262630
  2385.901,     0.633153
  2385.951,     1.492879
  2386.001,     2.299498
  2386.051,     2.996392
  2386.101,     3.554740
  2386.151,     3.983812
  2386.201,     4.258857
  2386.251,     4.392249
  2386.301,     4.389324
  2386.351,     4.262244
  2386.401,     4.045273
  2386.451,     3.752058
  2386.501,     3.425315
  2386.551,     3.051545
  2386.601,     2.684701
  2386.651,     2.337514
  2386.701,     1.985376
  2386.751,     1.637703
  2386.801,     1.300497
  2386.851,     0.952271
  2386.901,     0.569755
  2386.951,     0.137038
  2387.001,    -0.355521
  2387.051,    -0.917790
  2387.101,    -1.542595
  2387.151,    -2.200505
  2387.201,    -2.867600
  2387.251,    -3.530762
  2387.301,    -4.140096
  2387.351,    -4.623408
  2387.401,    -4.956269
  2387.451,    -5.069595
  2387.501,    -4.928926
  2387.551,    -4.516178
  2387.601,    -3.810764
  2387.651,    -2.831906
  2387.701,    -1.618972
  2387.751,    -0.187228
  2387.801,     1.348265
  2387.851,     2.970893
  2387.901,     4.556690
  2387.951,     6.041641
  2388.001,     7.346633
  2388.051,     8.387886
  2388.101,     9.108827
  2388.151,     9.492001
  2388.201,     9.503096
  2388.251,     9.156404
  2388.301,     8.455576
  2388.351,     7.456383
  2388.401,     6.214708
  2388.451,     4.771055
  2388.501,     3.198723
  2388.551,     1.570960
  2388.601,    -0.056094
  2388.651,    -1.639260
  2388.701,    -3.100304
  2388.751,    -4.427726
  2388.801,    -5.575029
  2388.851,    -6.536931
  2388.901,    -7.288229
  2388.951,    -7.827945
  2389.001,    -8.139447
  2389.051,    -8.238568
  2389.101,    -8.118942
  2389.151,    -7.781690
  2389.201,    -7.249559
  2389.251,    -6.517095
  2389.301,    -5.588990
  2389.351,    -4.505324
  2389.401,    -3.273816
  2389.451,    -1.935533
  2389.501,    -0.519777
  2389.551,     0.916939
  2389.601,     2.309035
  2389.651,     3.610913
  2389.701,     4.775732
  2389.751,     5.755115
  2389.801,     6.472718
  2389.851,     6.926048
  2389.901,     7.052941
  2389.951,     6.865335
  2390.001,     6.376613
  2390.051,     5.597233
  2390.101,     4.580698
  2390.151,     3.382720
  2390.201,     2.086299
  2390.251,     0.741029
  2390.301,    -0.568326
  2390.351,    -1.767737
  2390.401,    -2.830867
  2390.451,    -3.681457
  2390.501,    -4.325550
  2390.551,    -4.725932
  2390.601,    -4.920398
  2390.651,    -4.919583
  2390.701,    -4.770381
  2390.751,    -4.503659
  2390.801,    -4.158555
  2390.851,    -3.789743
  2390.901,    -3.413013
  2390.951,    -3.061355
  2391.001,    -2.731774
  2391.051,    -2.428381
  2391.101,    -2.150619
  2391.151,    -1.865190
  2391.201,    -1.561521
  2391.251,    -1.216341
  2391.301,    -0.828812
  2391.351,    -0.362990
  2391.401,     0.171169
  2391.451,     0.734372
  2391.501,     1.354092
  2391.551,     1.976150
  2391.601,     2.561699
  2391.651,     3.101961
  2391.701,     3.547894
  2391.751,     3.876950
  2391.801,     4.078194
  2391.851,     4.135640
  2391.901,     4.033215
  2391.951,     3.785001
  2392.001,     3.399036
  2392.051,     2.888967
  2392.101,     2.285844
  2392.151,     1.585097
  2392.201,     0.846363
  2392.251,     0.057066
  2392.301,    -0.740166
  2392.351,    -1.543235
  2392.401,    -2.327159
  2392.451,    -3.099580
  2392.501,    -3.824804
  2392.551,    -4.487127
  2392.601,    -5.074615
  2392.651,    -5.551433
  2392.701,    -5.898428
  2392.751,    -6.103415
  2392.801,    -6.106114
  2392.851,    -5.927701
  2392.901,    -5.522916
  2392.951,    -4.912826
  2393.001,    -4.079354
  2393.051,    -3.056234
  2393.101,    -1.858873
  2393.151,    -0.564111
  2393.201,     0.805850
  2393.251,     2.172546
  2393.301,     3.460684
  2393.351,     4.620479
  2393.401,     5.594536
  2393.451,     6.318511
  2393.501,     6.776335
  2393.551,     6.928530
  2393.601,     6.779850
  2393.651,     6.342527
  2393.701,     5.654257
  2393.751,     4.752447
  2393.801,     3.667248
  2393.851,     2.475013
  2393.901,     1.218279
  2393.951,    -0.047796
  2394.001,    -1.272582
  2394.051,    -2.416092
  2394.101,    -3.463103
  2394.151,    -4.377058
  2394.201,    -5.142665
  2394.251,    -5.748560
  2394.301,    -6.205604
  2394.351,    -6.476656
  2394.401,    -6.583552
  2394.451,    -6.519020
  2394.501,    -6.272455
  2394.551,    -5.852034
  2394.602,    -5.253825
  2394.652,    -4.469650
  2394.702,    -3.531877
  2394.752,    -2.467535
  2394.802,    -1.291767
  2394.852,    -0.059010
  2394.902,     1.184129
  2394.952,     2.388092
  2395.002,     3.496527
  2395.052,     4.437618
  2395.102,     5.186564
  2395.152,     5.695301
  2395.202,     5.955933
  2395.252,     5.935094
  2395.302,     5.649763
  2395.352,     5.148180
  2395.402,     4.442535
  2395.452,     3.588783
  2395.502,     2.648157
  2395.552,     1.664644
  2395.602,     0.701822
  2395.652,    -0.207962
  2395.702,    -1.003695
  2395.752,    -1.671274
  2395.802,    -2.202628
  2395.852,    -2.599068
  2395.902,    -2.872344
  2395.952,    -3.024518
  2396.002,    -3.088226
  2396.052,    -3.105162
  2396.102,    -3.073726
  2396.152,    -3.046656
  2396.202,    -3.021758
  2396.252,    -2.990653
  2396.302,    -2.973038
  2396.352,    -2.926522
  2396.402,    -2.866079
  2396.452,    -2.755293
  2396.502,    -2.589115
  2396.552,    -2.351383
  2396.602,    -2.022988
  2396.652,    -1.599368
  2396.702,    -1.087633
  2396.752,    -0.491539
  2396.802,     0.161032
  2396.852,     0.851409
  2396.902,     1.547303
  2396.952,     2.242932
  2397.002,     2.859395
  2397.052,     3.410317
  2397.102,     3.851273
  2397.152,     4.163935
  2397.202,     4.321331
  2397.252,     4.321722
  2397.302,     4.192162
  2397.352,     3.912555
  2397.402,     3.484102
  2397.452,     2.947379
  2397.502,     2.305057
  2397.552,     1.562848
  2397.602,     0.760274
  2397.652,    -0.081736
  2397.702,    -0.943896
  2397.752,    -1.815755
  2397.802,    -2.655545
  2397.852,    -3.456401
  2397.902,    -4.178954
  2397.952,    -4.798588
  2398.002,    -5.319871
  2398.052,    -5.699634
  2398.102,    -5.908191
  2398.152,    -5.948139
  2398.202,    -5.814777
  2398.252,    -5.477364
  2398.302,    -4.965495
  2398.352,    -4.283037
  2398.402,    -3.444533
  2398.452,    -2.464951
  2398.502,    -1.378101
  2398.552,    -0.243798
  2398.602,     0.909407
  2398.652,     2.027755
  2398.702,     3.103737
  2398.752,     4.061917
  2398.802,     4.886677
  2398.852,     5.514305
  2398.902,     5.945332
  2398.952,     6.147929
  2399.002,     6.124241
  2399.052,     5.865578
  2399.102,     5.388497
  2399.152,     4.709147
  2399.202,     3.854064
  2399.252,     2.870726
  2399.302,     1.771309
  2399.352,     0.630426
  2399.402,    -0.538773
  2399.452,    -1.654605
  2399.502,    -2.673513
  2399.552,    -3.571863
  2399.602,    -4.311836
  2399.652,    -4.857723
  2399.702,    -5.191885
  2399.752,    -5.303742
  2399.802,    -5.184784
  2399.852,    -4.885284
  2399.902,    -4.386067
  2399.952,    -3.734115
  2400.002,    -2.959466
  2400.052,    -2.116272
  2400.102,    -1.226166
  2400.152,    -0.333931
  2400.202,     0.526259
  2400.252,     1.313557
  2400.302,     2.005401
  2400.352,     2.593715
  2400.402,     3.048871
  2400.452,     3.385639
  2400.502,     3.602958
  2400.552,     3.687911
  2400.602,     3.677749
  2400.652,     3.565539
  2400.702,     3.362376
  2400.752,     3.089544
  2400.802,     2.788575
  2400.852,     2.422767
  2400.902,     2.034283
  2400.952,     1.630672
  2401.002,     1.212525
  2401.052,     0.785261
  2401.102,     0.370872
  2401.152,    -0.058893
  2401.202,    -0.466789
  2401.252,    -0.876175
  2401.302,    -1.258877
  2401.352,    -1.611748
  2401.402,    -1.936359
  2401.452,    -2.212718
  2401.502,    -2.438195
  2401.552,    -2.609377
  2401.602,    -2.724570
  2401.652,    -2.779143
  2401.702,    -2.763157
  2401.752,    -2.671353
  2401.802,    -2.532923
  2401.852,    -2.324160
  2401.902,    -2.084647
  2401.952,    -1.789974
  2402.002,    -1.478538
  2402.052,    -1.122781
  2402.102,    -0.766952
  2402.152,    -0.388563
  2402.202,    -0.009764
  2402.252,     0.369311
  2402.302,     0.744944
  2402.352,     1.115755
  2402.402,     1.457589
  2402.452,     1.786734
  2402.502,     2.082843
  2402.552,     2.323366
  2402.602,     2.512053
  2402.652,     2.629406
  2402.702,     2.657337
  2402.752,     2.605834
  2402.802,     2.420400
  2402.852,     2.137936
  2402.902,     1.746201
  2402.952,     1.241307
  2403.002,     0.641914
  2403.052,    -0.031643
  2403.102,    -0.742296
  2403.152,    -1.492152
  2403.202,    -2.229162
  2403.252,    -2.922776
  2403.302,    -3.535946
  2403.352,    -4.041496
  2403.402,    -4.412776
  2403.452,    -4.630154
  2403.502,    -4.682140
  2403.552,    -4.569539
  2403.602,    -4.288459
  2403.652,    -3.833883
  2403.702,    -3.245917
  2403.752,    -2.537904
  2403.802,    -1.719780
  2403.852,    -0.842931
  2403.902,     0.075451
  2403.952,     0.996101
  2404.002,     1.859762
  2404.052,     2.661897
  2404.102,     3.359913
  2404.152,     3.925517
  2404.202,     4.346576
  2404.252,     4.588162
  2404.302,     4.652636
  2404.352,     4.519160
  2404.402,     4.203035
  2404.452,     3.724300
  2404.502,     3.092336
  2404.552,     2.335845
  2404.602,     1.489531
  2404.652,     0.570226
  2404.702,    -0.362269
  2404.752,    -1.270676
  2404.802,    -2.128781
  2404.852,    -2.890047
  2404.902,    -3.525174
  2404.952,    -4.019409
  2405.002,    -4.364465
  2405.052,    -4.546994
  2405.102,    -4.580814
  2405.152,    -4.440250
  2405.202,    -4.167446
  2405.252,    -3.797539
  2405.302,    -3.335522
  2405.352,    -2.804671
  2405.402,    -2.229519
  2405.452,    -1.665970
  2405.502,    -1.120900
  2405.552,    -0.598294
  2405.602,    -0.115193
  2405.652,     0.306352
  2405.702,     0.681996
  2405.752,     0.990850
  2405.802,     1.242483
  2405.852,     1.423369
  2405.902,     1.554031
  2405.952,     1.635267
  2406.002,     1.662587
  2406.052,     1.642622
  2406.102,     1.575249
  2406.152,     1.455372
  2406.202,     1.299465
  2406.252,     1.088253
  2406.302,     0.834953
  2406.352,     0.533767
  2406.402,     0.230503
  2406.452,    -0.112451
  2406.502,    -0.470644
  2406.552,    -0.825134
  2406.602,    -1.186935
  2406.652,    -1.519339
  2406.702,    -1.821859
  2406.752,    -2.072061
  2406.802,    -2.286245
  2406.852,    -2.463882
  2406.902,    -2.587201
  2406.952,    -2.646305
  2407.002,    -2.665899
  2407.052,    -2.635706
  2407.102,    -2.583516
  2407.152,    -2.482999
  2407.202,    -2.362162
  2407.252,    -2.191698
  2407.302,    -2.002949
  2407.352,    -1.781446
  2407.402,    -1.531853
  2407.452,    -1.249909
  2407.502,    -0.923027
  2407.552,    -0.554228
  2407.602,    -0.153155
  2407.652,     0.282537
  2407.702,     0.751062
  2407.752,     1.227612
  2407.802,     1.722867
  2407.852,     2.196026
  2407.902,     2.637979
  2407.952,     3.025603
  2408.002,     3.330848
  2408.052,     3.551934
  2408.102,     3.641259
  2408.152,     3.618474
  2408.202,     3.454985
  2408.252,     3.157144
  2408.302,     2.746472
  2408.352,     2.212357
  2408.402,     1.583623
  2408.452,     0.878139
  2408.502,     0.150609
  2408.552,    -0.586478
  2408.602,    -1.283179
  2408.652,    -1.911771
  2408.702,    -2.442283
  2408.752,    -2.832785
  2408.802,    -3.058146
  2408.852,    -3.141882
  2408.902,    -3.023570
  2408.952,    -2.744294
  2409.002,    -2.299333
  2409.052,    -1.744406
  2409.102,    -1.064967
  2409.152,    -0.310818
  2409.202,     0.481795
  2409.252,     1.265898
  2409.302,     2.011427
  2409.352,     2.677093
  2409.402,     3.251786
  2409.452,     3.693869
  2409.502,     4.012138
  2409.552,     4.178320
  2409.602,     4.200439
  2409.652,     4.054816
  2409.702,     3.792289
  2409.752,     3.400380
  2409.802,     2.916954
  2409.852,     2.334150
  2409.902,     1.696410
