Time_abs/ps, Signal/nA
  2370.000,    -0.142020
  2370.050,    -0.127779
  2370.100,    -0.121704
  2370.150,    -0.107658
  2370.200,    -0.098247
  2370.250,    -0.085587
  2370.300,    -0.069065
  2370.350,    -0.059543
  2370.400,    -0.039979
  2370.450,    -0.022775
  2370.500,    -0.007120
  2370.550,     0.017485
  2370.600,     0.029886
  2370.650,     0.063734
  2370.700,     0.084565
  2370.750,     0.105788
  2370.800,     0.123188
  2370.850,     0.139690
  2370.900,     0.147785
  2370.950,     0.169358
  2371.000,     0.172889
  2371.050,     0.187534
  2371.100,     0.205845
  2371.150,     0.220122
  2371.200,     0.232842
  2371.250,     0.241922
  2371.300,     0.261843
  2371.350,     0.287151
  2371.400,     0.300966
  2371.450,     0.323318
  2371.500,     0.350995
  2371.550,     0.367029
  2371.600,     0.381419
  2371.650,     0.399305
  2371.700,     0.408703
  2371.750,     0.430029
  2371.800,     0.448815
  2371.850,     0.470938
  2371.900,     0.489035
  2371.950,     0.517720
  2372.000,     0.533688
  2372.050,     0.569638
  2372.100,     0.609554
  2372.150,     0.655941
  2372.200,     0.687542
  2372.250,     0.746113
  2372.300,     0.806204
  2372.350,     0.868397
  2372.400,     0.933985
  2372.450,     1.004695
  2372.500,     1.094006
  2372.550,     1.173616
  2372.600,     1.260505
  2372.650,     1.342148
  2372.700,     1.431155
  2372.750,     1.515127
  2372.800,     1.597183
  2372.850,     1.673249
  2372.900,     1.752736
  2372.950,     1.818972
  2373.000,     1.874439
  2373.050,     1.931452
  2373.100,     1.968883
  2373.150,     2.002423
  2373.200,     2.034720
  2373.250,     2.039857
  2373.300,     2.030141
  2373.350,     2.002058
  2373.400,     1.964101
  2373.450,     1.908185
  2373.500,     1.820774
  2373.550,     1.709912
  2373.600,     1.572507
  2373.650,     1.391305
  2373.700,     1.161286
  2373.750,     0.887257
  2373.800,     0.571505
  2373.850,     0.183369
  2373.900,    -0.260762
  2373.950,    -0.784295
  2374.000,    -1.390412
  2374.050,    -2.077423
  2374.100,    -2.843104
  2374.150,    -3.718637
  2374.200,    -4.681268
  2374.250,    -5.750641
  2374.300,    -6.922582
  2374.350,    -8.212787
  2374.400,    -9.625242
  2374.450,   -11.177653
  2374.500,   -12.855683
  2374.550,   -14.680863
  2374.600,   -16.666588
  2374.650,   -18.828724
  2374.700,   -21.199053
  2374.750,   -23.772311
  2374.800,   -26.597017
  2374.850,   -29.682885
  2374.900,   -33.053021
  2374.950,   -36.712620
  2375.000,   -40.657819
  2375.050,   -44.849745
  2375.100,   -49.237279
  2375.150,   -53.672952
  2375.200,   -57.957858
  2375.250,   -61.833833
  2375.300,   -64.931909
  2375.350,   -66.793602
  2375.400,   -66.893166
  2375.450,   -64.638849
  2375.500,   -59.433080
  2375.550,   -50.743537
  2375.600,   -38.127234
  2375.650,   -21.320920
  2375.700,    -0.321618
  2375.750,    24.592035
  2375.800,    52.793710
  2375.850,    83.365092
  2375.900,   115.078206
  2375.950,   146.437432
  2376.000,   175.834595
  2376.050,   201.542268
  2376.100,   221.993312
  2376.150,   235.747813
  2376.200,   241.767681
  2376.250,   239.438812
  2376.300,   228.701660
  2376.350,   209.955408
  2376.400,   184.158496
  2376.450,   152.579351
  2376.500,   116.814521
  2376.550,    78.573667
  2376.600,    39.540807
  2376.650,     1.326885
  2376.700,   -34.633078
  2376.750,   -67.157383
  2376.800,   -95.266152
  2376.850,  -118.288426
  2376.900,  -135.812965
  2376.950,  -147.717060
  2377.000,  -154.131456
  2377.050,  -155.395978
  2377.100,  -152.048403
  2377.150,  -144.802861
  2377.200,  -134.480551
  2377.250,  -121.928925
  2377.300,  -108.039776
  2377.350,   -93.658376
  2377.400,   -79.521177
  2377.450,   -66.307992
  2377.500,   -54.462008
  2377.550,   -44.315089
  2377.600,   -35.994562
  2377.650,   -29.438996
  2377.700,   -24.461910
  2377.750,   -20.747728
  2377.800,   -17.905645
  2377.850,   -15.544379
  2377.900,   -13.304217
  2377.950,   -10.867715
  2378.000,    -8.050828
  2378.050,    -4.760422
  2378.100,    -0.996408
  2378.150,     3.105050
  2378.201,     7.360879
  2378.251,    11.527759
  2378.301,    15.373376
  2378.351,    18.673889
  2378.401,    21.255279
  2378.451,    23.014873
  2378.501,    23.902760
  2378.551,    23.982557
  2378.601,    23.385939
  2378.651,    22.274808
  2378.701,    20.864322
  2378.751,    19.370979
  2378.801,    17.994614
  2378.851,    16.906914
  2378.901,    16.203952
  2378.951,    15.933796
  2379.001,    16.061755
  2379.051,    16.477072
  2379.101,    17.031523
  2379.151,    17.530176
  2379.201,    17.780787
  2379.251,    17.575510
  2379.301,    16.793986
  2379.351,    15.333690
  2379.401,    13.188000
  2379.451,    10.435245
  2379.501,     7.197220
  2379.551,     3.702819
  2379.601,     0.162166
  2379.651,    -3.202643
  2379.701,    -6.162877
  2379.751,    -8.553173
  2379.801,   -10.276279
  2379.851,   -11.290392
  2379.901,   -11.598384
  2379.951,   -11.296683
  2380.001,   -10.465388
  2380.051,    -9.248034
  2380.101,    -7.729782
  2380.151,    -6.037948
  2380.201,    -4.235750
  2380.251,    -2.368929
  2380.301,    -0.474958
  2380.351,     1.446462
  2380.401,     3.377019
  2380.451,     5.294784
  2380.501,     7.172764
  2380.551,     8.946557
  2380.601,    10.550450
  2380.651,    11.897348
  2380.701,    12.913093
  2380.751,    13.489133
  2380.801,    13.576878
  2380.851,    13.130194
  2380.901,    12.131560
  2380.951,    10.599285
  2381.001,     8.594954
  2381.051,     6.188687
  2381.101,     3.469234
  2381.151,     0.569465
  2381.201,    -2.411133
  2381.251,    -5.352647
  2381.301,    -8.136221
  2381.351,   -10.663417
  2381.401,   -12.838886
  2381.451,   -14.580530
  2381.501,   -15.812273
  2381.551,   -16.461484
  2381.601,   -16.486350
  2381.651,   -15.881829
  2381.701,   -14.637402
  2381.751,   -12.791783
  2381.801,   -10.421855
  2381.851,    -7.626765
  2381.901,    -4.555076
  2381.951,    -1.358020
  2382.001,     1.816331
  2382.051,     4.753371
  2382.101,     7.352422
  2382.151,     9.457828
  2382.201,    11.005168
  2382.251,    11.950769
  2382.301,    12.276325
  2382.351,    12.054164
  2382.401,    11.347509
  2382.451,    10.245132
  2382.501,     8.883810
  2382.551,     7.327488
  2382.601,     5.683403
  2382.651,     4.046918
  2382.701,     2.479671
  2382.751,     0.990504
  2382.801,    -0.382533
  2382.851,    -1.641599
  2382.901,    -2.794332
  2382.951,    -3.861524
  2383.001,    -4.855459
  2383.051,    -5.764987
  2383.101,    -6.597882
  2383.151,    -7.308493
  2383.201,    -7.885873
  2383.251,    -8.299555
  2383.301,    -8.497035
  2383.351,    -8.439864
  2383.401,    -8.118173
  2383.451,    -7.488964
  2383.501,    -6.583226
  2383.551,    -5.424453
  2383.601,    -4.061169
  2383.651,    -2.550028
  2383.701,    -0.964832
  2383.751,     0.603479
  2383.801,     2.094536
  2383.851,     3.418166
  2383.901,     4.534395
  2383.951,     5.382492
  2384.001,     5.927557
  2384.051,     6.189125
  2384.101,     6.165483
  2384.151,     5.895267
  2384.201,     5.437540
  2384.251,     4.855647
  2384.301,     4.232866
  2384.351,     3.637041
  2384.401,     3.157177
  2384.451,     2.822949
  2384.501,     2.669229
  2384.551,     2.693839
  2384.601,     2.868524
  2384.651,     3.143392
  2384.701,     3.424366
  2384.751,     3.609314
  2384.801,     3.599644
  2384.851,     3.306052
  2384.901,     2.666253
  2384.951,     1.641644
  2385.001,     0.258660
  2385.051,    -1.437161
  2385.101,    -3.335526
  2385.151,    -5.293540
  2385.201,    -7.140448
  2385.251,    -8.726662
  2385.301,    -9.863628
  2385.351,   -10.452669
  2385.401,   -10.375399
  2385.451,    -9.598706
  2385.501,    -8.167139
  2385.551,    -6.123645
  2385.601,    -3.595882
  2385.651,    -0.748044
  2385.701,     2.243006
  2385.751,     5.204362
  2385.801,     7.968927
  2385.851,    10.357857
  2385.901,    12.290942
  2385.951,    13.646773
  2386.001,    14.412696
  2386.051,    14.569864
  2386.101,    14.142248
  2386.151,    13.206958
  2386.201,    11.831422
  2386.251,    10.122658
  2386.301,     8.184418
  2386.351,     6.091536
  2386.401,     3.944650
  2386.451,     1.820296
  2386.501,    -0.216898
  2386.551,    -2.140950
  2386.601,    -3.891206
  2386.651,    -5.467097
  2386.701,    -6.848003
  2386.751,    -8.040418
  2386.801,    -9.057879
  2386.851,    -9.854547
  2386.901,   -10.451168
  2386.951,   -10.835319
  2387.001,   -10.966905
  2387.051,   -10.843728
  2387.101,   -10.419890
  2387.151,    -9.666685
  2387.201,    -8.566487
  2387.251,    -7.110772
  2387.301,    -5.294305
  2387.351,    -3.166047
  2387.401,    -0.784668
  2387.451,     1.756415
  2387.501,     4.341363
  2387.551,     6.825061
  2387.601,     9.054487
  2387.651,    10.871943
  2387.701,    12.150795
  2387.751,    12.786092
  2387.801,    12.718011
  2387.851,    11.947046
  2387.901,    10.543599
  2387.951,     8.586655
  2388.001,     6.263565
  2388.051,     3.746989
  2388.101,     1.240434
  2388.151,    -1.075761
  2388.201,    -3.030101
  2388.251,    -4.525398
  2388.301,    -5.506575
  2388.351,    -5.973041
  2388.401,    -5.986336
  2388.451,    -5.652438
  2388.501,    -5.086270
  2388.551,    -4.420029
  2388.601,    -3.808967
  2388.651,    -3.293414
  2388.701,    -2.991513
  2388.751,    -2.883779
  2388.801,    -2.982092
  2388.851,    -3.190594
  2388.901,    -3.460426
  2388.951,    -3.688497
  2389.001,    -3.779617
  2389.051,    -3.691681
  2389.101,    -3.349209
  2389.151,    -2.759760
  2389.201,    -1.902000
  2389.251,    -0.825236
  2389.301,     0.377937
  2389.351,     1.662855
  2389.401,     2.918282
  2389.451,     4.068683
  2389.501,     5.028801
  2389.551,     5.737570
  2389.601,     6.178668
  2389.651,     6.332154
  2389.701,     6.237729
  2389.751,     5.898842
  2389.801,     5.389473
  2389.851,     4.791960
  2389.901,     4.131239
  2389.951,     3.461507
  2390.001,     2.814017
  2390.051,     2.195429
  2390.101,     1.578538
  2390.151,     0.925219
  2390.201,     0.225006
  2390.251,    -0.570365
  2390.301,    -1.484470
  2390.351,    -2.547941
  2390.401,    -3.726451
  2390.451,    -4.986625
  2390.501,    -6.270330
  2390.551,    -7.482442
  2390.601,    -8.539275
  2390.651,    -9.350037
  2390.701,    -9.791236
  2390.751,    -9.790116
  2390.801,    -9.303548
  2390.851,    -8.308717
  2390.901,    -6.827937
  2390.951,    -4.918591
  2391.001,    -2.649894
  2391.051,    -0.182243
  2391.101,     2.350919
  2391.151,     4.784449
  2391.201,     6.951856
  2391.251,     8.745127
  2391.301,    10.033302
  2391.351,    10.789924
  2391.401,    10.978318
  2391.451,    10.645970
  2391.501,     9.853666
  2391.551,     8.723757
  2391.601,     7.347143
  2391.651,     5.841140
  2391.701,     4.302018
  2391.751,     2.822578
  2391.801,     1.447426
  2391.851,     0.183533
  2391.901,    -0.977057
  2391.951,    -2.047863
  2392.001,    -3.099907
  2392.051,    -4.137426
  2392.101,    -5.197370
  2392.151,    -6.251577
  2392.201,    -7.294788
  2392.251,    -8.253069
  2392.301,    -9.043404
  2392.351,    -9.598073
  2392.401,    -9.796373
  2392.451,    -9.590038
  2392.501,    -8.887237
  2392.551,    -7.700614
  2392.601,    -6.053664
  2392.651,    -3.997497
  2392.701,    -1.676324
  2392.751,     0.785278
  2392.801,     3.210158
  2392.851,     5.452222
  2392.901,     7.354463
  2392.951,     8.811997
  2393.001,     9.722135
  2393.051,    10.078174
  2393.101,     9.889038
  2393.151,     9.205597
  2393.201,     8.130666
  2393.251,     6.758964
  2393.301,     5.230429
  2393.351,     3.634360
  2393.401,     2.092273
  2393.451,     0.706340
  2393.501,    -0.458886
  2393.551,    -1.379089
  2393.601,    -2.048129
  2393.651,    -2.468370
  2393.701,    -2.667044
  2393.751,    -2.714953
  2393.801,    -2.659769
  2393.851,    -2.585518
  2393.901,    -2.532331
  2393.951,    -2.546206
  2394.001,    -2.642628
  2394.051,    -2.858603
  2394.101,    -3.148172
  2394.151,    -3.508454
  2394.201,    -3.866154
  2394.251,    -4.174277
  2394.301,    -4.381904
  2394.351,    -4.414440
  2394.401,    -4.257930
  2394.451,    -3.890023
  2394.501,    -3.298124
  2394.551,    -2.506178
  2394.602,    -1.558198
  2394.652,    -0.491298
  2394.702,     0.627636
  2394.752,     1.743069
  2394.802,     2.805969
  2394.852,     3.754620
  2394.902,     4.575733
  2394.952,     5.219118
  2395.002,     5.695014
  2395.052,     5.986289
  2395.102,     6.107267
  2395.152,     6.062037
  2395.202,     5.871175
  2395.252,     5.528369
  2395.302,     5.067927
  2395.352,     4.460998
  2395.402,     3.729258
  2395.452,     2.893748
  2395.502,     1.924883
  2395.552,     0.832449
  2395.602,    -0.347637
  2395.652,    -1.595871
  2395.702,    -2.880794
  2395.752,    -4.159345
  2395.802,    -5.372611
  2395.852,    -6.460925
  2395.902,    -7.389691
  2395.952,    -8.113658
  2396.002,    -8.558044
  2396.052,    -8.711665
  2396.102,    -8.549989
  2396.152,    -8.067216
  2396.202,    -7.263845
  2396.252,    -6.173900
  2396.302,    -4.855297
  2396.352,    -3.346164
  2396.402,    -1.704256
  2396.452,     0.021351
  2396.502,     1.742494
  2396.552,     3.418815
  2396.602,     4.987705
  2396.652,     6.387058
  2396.702,     7.588830
  2396.752,     8.558291
  2396.802,     9.232777
  2396.852,     9.599806
  2396.902,     9.625890
  2396.952,     9.288693
  2397.002,     8.577557
  2397.052,     7.528548
  2397.102,     6.178570
  2397.152,     4.551248
  2397.202,     2.733190
  2397.252,     0.805414
  2397.302,    -1.122675
  2397.352,    -2.955965
  2397.402,    -4.612244
  2397.452,    -5.994389
  2397.502,    -7.040818
  2397.552,    -7.714972
  2397.602,    -8.010066
  2397.652,    -7.919184
  2397.702,    -7.496959
  2397.752,    -6.776816
  2397.802,    -5.820581
  2397.852,    -4.679060
  2397.902,    -3.428138
  2397.952,    -2.115341
  2398.002,    -0.820051
  2398.052,     0.420321
  2398.102,     1.566663
  2398.152,     2.594625
  2398.202,     3.447010
  2398.252,     4.156540
  2398.302,     4.666649
  2398.352,     5.006575
  2398.402,     5.170082
  2398.452,     5.187337
  2398.502,     5.085798
  2398.552,     4.867162
  2398.602,     4.576568
  2398.652,     4.234041
  2398.702,     3.841753
  2398.752,     3.435718
  2398.802,     2.999369
  2398.852,     2.559586
  2398.902,     2.068359
  2398.952,     1.539595
  2399.002,     0.968927
  2399.052,     0.362609
  2399.102,    -0.257034
  2399.152,    -0.913618
  2399.202,    -1.546709
  2399.252,    -2.136739
  2399.302,    -2.668547
  2399.352,    -3.107751
  2399.402,    -3.438537
  2399.452,    -3.644543
  2399.502,    -3.712576
  2399.552,    -3.663009
  2399.602,    -3.518728
  2399.652,    -3.289276
  2399.702,    -3.013360
  2399.752,    -2.696643
  2399.802,    -2.366947
  2399.852,    -2.059501
  2399.902,    -1.746558
  2399.952,    -1.463615
  2400.002,    -1.189841
  2400.052,    -0.898627
  2400.102,    -0.595834
  2400.152,    -0.250999
  2400.202,     0.136726
  2400.252,     0.590362
  2400.302,     1.093391
  2400.352,     1.636192
  2400.402,     2.210179
  2400.452,     2.765837
  2400.502,     3.266828
  2400.552,     3.680272
  2400.602,     3.945251
  2400.652,     4.044877
  2400.702,     3.919950
  2400.752,     3.588541
  2400.802,     3.040363
  2400.852,     2.301126
  2400.902,     1.409782
  2400.952,     0.409006
  2401.002,    -0.629027
  2401.052,    -1.661690
  2401.102,    -2.622959
  2401.152,    -3.453374
  2401.202,    -4.134345
  2401.252,    -4.628967
  2401.302,    -4.927877
  2401.352,    -5.013777
  2401.402,    -4.903641
  2401.452,    -4.585335
  2401.502,    -4.075773
  2401.552,    -3.394137
  2401.602,    -2.545082
  2401.652,    -1.548301
  2401.702,    -0.443835
  2401.752,     0.756266
  2401.802,     1.991905
  2401.852,     3.234354
  2401.902,     4.442360
  2401.952,     5.533338
  2402.002,     6.471124
  2402.052,     7.198422
  2402.102,     7.674692
  2402.152,     7.864790
  2402.202,     7.746138
  2402.252,     7.324349
  2402.302,     6.587456
  2402.352,     5.595820
  2402.402,     4.379200
  2402.452,     2.972474
  2402.502,     1.466787
  2402.552,    -0.073614
  2402.602,    -1.593842
  2402.652,    -3.014654
  2402.702,    -4.272800
  2402.752,    -5.342374
  2402.802,    -6.148693
  2402.852,    -6.695557
  2402.902,    -6.944336
  2402.952,    -6.922645
  2403.002,    -6.665646
  2403.052,    -6.197823
  2403.102,    -5.554219
  2403.152,    -4.794859
  2403.202,    -3.981744
  2403.252,    -3.151137
  2403.302,    -2.339232
  2403.352,    -1.575162
  2403.402,    -0.893304
  2403.452,    -0.285582
  2403.502,     0.242965
  2403.552,     0.726208
  2403.602,     1.141128
  2403.652,     1.527679
  2403.702,     1.875090
  2403.752,     2.218867
  2403.802,     2.519094
  2403.852,     2.775812
  2403.902,     2.960558
  2403.952,     3.082276
  2404.002,     3.097746
  2404.052,     2.986323
  2404.102,     2.758832
  2404.152,     2.422425
  2404.202,     1.963220
  2404.252,     1.418198
  2404.302,     0.822783
  2404.352,     0.192181
  2404.402,    -0.416448
  2404.452,    -1.021312
  2404.502,    -1.545760
  2404.552,    -1.989197
  2404.602,    -2.356421
  2404.652,    -2.628141
  2404.702,    -2.802718
  2404.752,    -2.904060
  2404.802,    -2.950625
  2404.852,    -2.951724
  2404.902,    -2.919208
  2404.952,    -2.879529
  2405.002,    -2.843068
  2405.052,    -2.806218
  2405.102,    -2.771815
  2405.152,    -2.736775
  2405.202,    -2.675816
  2405.252,    -2.572864
  2405.302,    -2.395075
  2405.352,    -2.146121
  2405.402,    -1.798704
  2405.452,    -1.339156
  2405.502,    -0.772043
  2405.552,    -0.090992
  2405.602,     0.672926
  2405.652,     1.499761
  2405.702,     2.362977
  2405.752,     3.225506
  2405.802,     4.042382
  2405.852,     4.774977
  2405.902,     5.395469
  2405.952,     5.862143
  2406.002,     6.141539
  2406.052,     6.192215
  2406.102,     6.014699
  2406.152,     5.576937
  2406.202,     4.899511
  2406.252,     3.998612
  2406.302,     2.916248
  2406.352,     1.670888
  2406.402,     0.356804
  2406.452,    -0.955893
  2406.502,    -2.216257
  2406.552,    -3.330451
  2406.602,    -4.228783
  2406.652,    -4.876036
  2406.702,    -5.226870
  2406.752,    -5.234763
  2406.802,    -4.945931
  2406.852,    -4.355175
  2406.902,    -3.516790
  2406.952,    -2.466277
  2407.002,    -1.282318
  2407.052,    -0.032492
  2407.102,     1.225464
  2407.152,     2.411237
  2407.202,     3.491663
  2407.252,     4.416609
  2407.302,     5.142585
  2407.352,     5.683893
  2407.402,     6.015394
  2407.452,     6.136817
  2407.502,     6.090806
  2407.552,     5.881241
  2407.602,     5.526555
  2407.652,     5.058531
  2407.702,     4.485882
  2407.752,     3.835585
  2407.802,     3.105787
  2407.852,     2.304238
  2407.902,     1.432800
  2407.952,     0.489277
  2408.002,    -0.502302
  2408.052,    -1.531396
  2408.102,    -2.552408
  2408.152,    -3.559090
  2408.202,    -4.502615
  2408.252,    -5.329340
  2408.302,    -6.009713
  2408.352,    -6.502114
  2408.402,    -6.774519
  2408.452,    -6.809773
  2408.502,    -6.599637
  2408.552,    -6.163787
  2408.602,    -5.522513
  2408.652,    -4.686442
  2408.702,    -3.737474
  2408.752,    -2.736280
  2408.802,    -1.714161
  2408.852,    -0.756827
  2408.902,     0.092424
  2408.952,     0.798029
  2409.002,     1.328718
  2409.052,     1.687367
  2409.102,     1.870075
  2409.152,     1.923860
  2409.202,     1.886954
  2409.252,     1.792839
  2409.302,     1.679216
  2409.352,     1.636703
  2409.402,     1.634025
  2409.452,     1.710758
  2409.502,     1.830171
  2409.552,     2.007843
  2409.602,     2.188493
  2409.652,     2.347984
  2409.702,     2.439739
  2409.752,     2.434886
  2409.802,     2.291534
  2409.852,     2.022332
  2409.902,     1.632610
