Time_abs/ps, Signal/nA
  2370.000,    -0.653950
  2370.050,    -0.587766
  2370.100,    -0.504418
  2370.150,    -0.382499
  2370.200,    -0.248248
  2370.250,    -0.092159
  2370.300,     0.054903
  2370.350,     0.177647
  2370.400,     0.264672
  2370.450,     0.314300
  2370.500,     0.338087
  2370.550,     0.321145
  2370.600,     0.271790
  2370.650,     0.219489
  2370.700,     0.168577
  2370.750,     0.125364
  2370.800,     0.098010
  2370.850,     0.078178
  2370.900,     0.040088
  2370.950,    -0.003210
  2371.000,    -0.082618
  2371.050,    -0.205202
  2371.100,    -0.368238
  2371.150,    -0.603687
  2371.200,    -0.913698
  2371.250,    -1.293258
  2371.300,    -1.764854
  2371.350,    -2.331949
  2371.400,    -2.984678
  2371.450,    -3.729358
  2371.500,    -4.555159
  2371.550,    -5.457424
  2371.600,    -6.444232
  2371.650,    -7.498290
  2371.700,    -8.653402
  2371.750,    -9.907642
  2371.800,   -11.250372
  2371.850,   -12.718686
  2371.900,   -14.319586
  2371.950,   -16.057312
  2372.000,   -17.942090
  2372.050,   -19.987268
  2372.100,   -22.235752
  2372.150,   -24.678074
  2372.200,   -27.381096
  2372.250,   -30.367752
  2372.300,   -33.720602
  2372.350,   -37.502125
  2372.400,   -41.800097
  2372.450,   -46.708587
  2372.500,   -52.302115
  2372.550,   -58.620686
  2372.600,   -65.765658
  2372.650,   -73.745786
  2372.700,   -82.500191
  2372.750,   -91.820285
  2372.800,  -101.235537
  2372.850,  -109.888157
  2372.900,  -116.334662
  2372.950,  -118.252382
  2373.000,  -112.497865
  2373.050,   -95.070610
  2373.100,   -61.514117
  2373.150,    -7.811917
  2373.200,    68.328045
  2373.250,   166.000707
  2373.300,   280.009359
  2373.350,   400.401042
  2373.400,   512.685643
  2373.450,   599.388969
  2373.500,   643.988661
  2373.550,   635.934618
  2373.600,   574.585512
  2373.650,   469.213048
  2373.700,   335.882912
  2373.750,   192.646710
  2373.800,    55.429319
  2373.850,   -64.364186
  2373.900,  -160.085510
  2373.950,  -229.274016
  2374.000,  -272.828894
  2374.050,  -293.990261
  2374.100,  -296.914094
  2374.150,  -285.842473
  2374.200,  -265.005284
  2374.250,  -238.834812
  2374.300,  -211.757704
  2374.350,  -187.274460
  2374.400,  -167.063515
  2374.450,  -150.910160
  2374.500,  -137.157107
  2374.550,  -123.448339
  2374.600,  -107.463751
  2374.650,   -87.300330
  2374.700,   -61.831571
  2374.750,   -31.361693
  2374.800,     1.704703
  2374.850,    32.603314
  2374.900,    55.185532
  2374.950,    63.792055
  2375.000,    55.432600
  2375.050,    31.018292
  2375.100,    -4.737000
  2375.150,   -44.736501
  2375.200,   -81.028793
  2375.250,  -105.903728
  2375.300,  -113.067536
  2375.350,   -99.337543
  2375.400,   -66.325502
  2375.450,   -20.789779
  2375.500,    27.536723
  2375.550,    68.981753
  2375.600,    96.751947
  2375.650,   108.297666
  2375.700,   104.844106
  2375.750,    89.907443
  2375.800,    67.735501
  2375.850,    42.671483
  2375.900,    18.699032
  2375.950,    -0.963357
  2376.000,   -14.624722
  2376.050,   -22.267003
  2376.100,   -25.095983
  2376.150,   -24.279669
  2376.200,   -20.296683
  2376.250,   -13.418144
  2376.300,    -4.362269
  2376.350,     5.660724
  2376.400,    15.604777
  2376.450,    25.064875
  2376.500,    34.090312
  2376.550,    42.551228
  2376.600,    49.525243
  2376.650,    53.170570
  2376.700,    51.643113
  2376.750,    44.010954
  2376.800,    30.523898
  2376.850,    12.136308
  2376.900,    -9.782918
  2376.950,   -33.362040
  2377.000,   -55.785989
  2377.050,   -73.282743
  2377.100,   -81.677465
  2377.150,   -78.076589
  2377.200,   -62.441823
  2377.250,   -37.854812
  2377.300,    -9.410196
  2377.350,    17.417996
  2377.400,    37.663509
  2377.450,    47.401287
  2377.500,    44.615667
  2377.550,    30.391199
  2377.600,     9.171366
  2377.650,   -12.783530
  2377.700,   -29.737227
  2377.750,   -38.051963
  2377.800,   -36.669557
  2377.850,   -26.761686
  2377.900,   -11.060156
  2377.950,     7.081205
  2378.000,    24.674848
  2378.050,    39.317699
  2378.100,    49.102730
  2378.150,    52.622946
  2378.201,    49.520143
  2378.251,    40.412321
  2378.301,    26.655898
  2378.351,    10.049188
  2378.401,    -7.056621
  2378.451,   -21.862337
  2378.501,   -31.665431
  2378.551,   -35.211594
  2378.601,   -33.541997
  2378.651,   -29.530047
  2378.701,   -26.012564
  2378.751,   -23.973190
  2378.801,   -22.811858
  2378.851,   -22.066677
  2378.901,   -22.179726
  2378.951,   -23.843262
  2379.001,   -26.854445
  2379.051,   -30.064898
  2379.101,   -31.956542
  2379.151,   -31.071096
  2379.201,   -26.249969
  2379.251,   -16.815185
  2379.301,    -3.250944
  2379.351,    12.683480
  2379.401,    28.453099
  2379.451,    41.514301
  2379.501,    49.683127
  2379.551,    51.173094
  2379.601,    45.340702
  2379.651,    33.396820
  2379.701,    18.096955
  2379.751,     2.447818
  2379.801,   -11.169529
  2379.851,   -21.275920
  2379.901,   -26.800104
  2379.951,   -26.968429
  2380.001,   -21.775160
  2380.051,   -12.682047
  2380.101,    -2.573461
  2380.151,     5.159316
  2380.201,     8.301170
  2380.251,     6.940931
  2380.301,     3.018953
  2380.351,    -1.336323
  2380.401,    -5.348000
  2380.451,    -9.395502
  2380.501,   -13.844401
  2380.551,   -18.211322
  2380.601,   -21.537398
  2380.651,   -23.575470
  2380.701,   -24.886050
  2380.751,   -25.917841
  2380.801,   -26.044959
  2380.851,   -23.801255
  2380.901,   -18.190919
  2380.951,    -9.624665
  2381.001,     0.282278
  2381.051,     9.643945
  2381.101,    16.866891
  2381.151,    20.695431
  2381.201,    20.557589
  2381.251,    17.153399
  2381.301,    12.094291
  2381.351,     7.033547
  2381.401,     2.871108
  2381.451,     0.055582
  2381.501,    -0.983632
  2381.551,    -0.255518
  2381.601,     1.247385
  2381.651,     1.866443
  2381.701,     0.214077
  2381.751,    -3.766907
  2381.801,    -8.807499
  2381.851,   -13.221686
  2381.901,   -15.615867
  2381.951,   -14.895404
  2382.001,   -10.476939
  2382.051,    -2.911834
  2382.101,     6.131898
  2382.151,    14.542824
  2382.201,    20.631993
  2382.251,    23.315901
  2382.301,    22.135440
  2382.351,    17.471912
  2382.401,    10.196023
  2382.451,     1.008354
  2382.501,    -9.980461
  2382.551,   -23.055451
  2382.601,   -37.648362
  2382.651,   -51.371671
  2382.701,   -60.482074
  2382.751,   -61.721618
  2382.801,   -53.961110
  2382.851,   -38.400870
  2382.901,   -17.713280
  2382.951,     4.531704
  2383.001,    24.448300
  2383.051,    38.709324
  2383.101,    45.562528
  2383.151,    45.412161
  2383.201,    40.458773
  2383.251,    33.368792
  2383.301,    26.147577
  2383.351,    19.590840
  2383.401,    13.577230
  2383.451,     7.757249
  2383.501,     2.184514
  2383.551,    -2.511487
  2383.601,    -5.506475
  2383.651,    -6.580633
  2383.701,    -6.426681
  2383.751,    -6.278668
  2383.801,    -7.004549
  2383.851,    -8.445078
  2383.901,    -9.903910
  2383.951,   -10.806321
  2384.001,   -11.218210
  2384.051,   -11.719418
  2384.101,   -12.799856
  2384.151,   -14.387349
  2384.201,   -15.963461
  2384.251,   -17.110668
  2384.301,   -17.738592
  2384.351,   -17.997438
  2384.401,   -18.085832
  2384.451,   -18.187027
  2384.501,   -18.388012
  2384.551,   -18.518740
  2384.601,   -18.250536
  2384.651,   -17.161200
  2384.701,   -14.813760
  2384.751,   -10.890746
  2384.801,    -5.218864
  2384.851,     2.444284
  2384.901,    12.096969
  2384.951,    22.933249
  2385.001,    33.082346
  2385.051,    40.483489
  2385.101,    43.918872
  2385.151,    43.315142
  2385.201,    38.990759
  2385.251,    30.792643
  2385.301,    18.468740
  2385.351,     2.565284
  2385.401,   -15.057464
  2385.451,   -31.694199
  2385.501,   -44.947404
  2385.551,   -53.255137
  2385.601,   -55.564376
  2385.651,   -50.914687
  2385.701,   -39.013897
  2385.751,   -21.319559
  2385.801,    -1.053555
  2385.851,    17.838914
  2385.901,    32.071027
  2385.951,    39.473567
  2386.001,    38.928355
  2386.051,    30.483442
  2386.101,    15.566522
  2386.151,    -2.952151
  2386.201,   -21.276641
  2386.251,   -35.776719
  2386.301,   -44.085347
  2386.351,   -45.486422
  2386.401,   -40.487634
  2386.451,   -30.375359
  2386.501,   -17.083807
  2386.551,    -3.017146
  2386.601,     9.350845
  2386.651,    18.331102
  2386.701,    23.356731
  2386.751,    24.689159
  2386.801,    22.851166
  2386.851,    18.611029
  2386.901,    13.367030
  2386.951,     8.796866
  2387.001,     5.807853
  2387.051,     3.921115
  2387.101,     1.815989
  2387.151,    -1.450378
  2387.201,    -5.790324
  2387.251,   -10.305210
  2387.301,   -13.834695
  2387.351,   -15.307898
  2387.401,   -14.068042
  2387.451,    -9.972341
  2387.501,    -3.408280
  2387.551,     4.537510
  2387.601,    12.013098
  2387.651,    16.907758
  2387.701,    17.609471
  2387.751,    13.420850
  2387.801,     4.699721
  2387.851,    -7.458781
  2387.901,   -21.263461
  2387.951,   -34.300248
  2388.001,   -43.733840
  2388.051,   -46.930717
  2388.101,   -43.108226
  2388.151,   -34.016155
  2388.201,   -23.170590
  2388.251,   -13.598037
  2388.301,    -6.508813
  2388.351,    -1.223676
  2388.401,     3.889078
  2388.451,    10.299262
  2388.501,    18.575434
  2388.551,    27.928821
  2388.601,    36.450942
  2388.651,    41.650817
  2388.701,    41.658529
  2388.751,    35.868929
  2388.801,    25.316763
  2388.851,    11.903161
  2388.901,    -2.501213
  2388.951,   -16.223040
  2389.001,   -27.338532
  2389.051,   -33.754413
  2389.101,   -33.983871
  2389.151,   -28.106618
  2389.201,   -17.892447
  2389.251,    -5.938086
  2389.301,     5.122345
  2389.351,    13.403001
  2389.401,    17.902586
  2389.451,    18.159504
  2389.501,    13.876745
  2389.551,     4.849267
  2389.601,    -8.288425
  2389.651,   -23.376798
  2389.701,   -37.052741
  2389.751,   -46.053573
  2389.801,   -48.708355
  2389.851,   -45.405684
  2389.901,   -37.717055
  2389.951,   -27.271759
  2390.001,   -15.171020
  2390.051,    -2.058890
  2390.101,    11.571561
  2390.151,    25.026962
  2390.201,    37.149159
  2390.251,    46.215729
  2390.301,    50.284360
  2390.351,    47.900313
  2390.401,    38.760152
  2390.451,    24.106073
  2390.501,     6.523062
  2390.551,   -10.770936
  2390.601,   -24.735446
  2390.651,   -33.196963
  2390.701,   -35.141489
  2390.751,   -30.929757
  2390.801,   -22.244882
  2390.851,   -11.746403
  2390.901,    -2.340796
  2390.951,     3.878962
  2391.001,     6.268338
  2391.051,     5.385561
  2391.101,     2.519570
  2391.151,    -0.946045
  2391.201,    -3.656234
  2391.251,    -4.582283
  2391.301,    -3.435694
  2391.351,    -1.024829
  2391.401,     1.049511
  2391.451,     0.974861
  2391.501,    -2.205767
  2391.551,    -8.074987
  2391.601,   -15.079406
  2391.651,   -21.239299
  2391.701,   -25.016155
  2391.751,   -25.647799
  2391.801,   -23.120731
  2391.851,   -17.715703
  2391.901,    -9.956602
  2391.951,    -0.913710
  2392.001,     7.632268
  2392.051,    13.942034
  2392.101,    16.992352
  2392.151,    16.853218
  2392.201,    14.349061
  2392.251,    10.578310
  2392.301,     6.545607
  2392.351,     2.986892
  2392.401,     0.275658
  2392.451,    -1.498869
  2392.501,    -2.437690
  2392.551,    -2.655206
  2392.601,    -2.245353
  2392.651,    -1.190309
  2392.701,     0.513630
  2392.751,     2.610687
  2392.801,     4.615516
  2392.851,     6.031316
  2392.901,     6.300206
  2392.951,     4.779228
  2393.001,     1.097795
  2393.051,    -4.444975
  2393.101,   -10.874183
  2393.151,   -17.005952
  2393.201,   -21.797672
  2393.251,   -24.656933
  2393.301,   -25.511487
  2393.351,   -24.676332
  2393.401,   -22.582178
  2393.451,   -19.745071
  2393.501,   -16.594606
  2393.551,   -13.446932
  2393.601,   -10.242311
  2393.651,    -6.689739
  2393.701,    -2.718436
  2393.751,     1.376548
  2393.801,     5.147032
  2393.851,     8.414824
  2393.901,    11.125269
  2393.951,    13.061718
  2394.001,    13.763456
  2394.051,    12.769142
  2394.101,    10.273792
  2394.151,     7.302146
  2394.201,     5.297194
  2394.251,     5.305176
  2394.301,     7.271498
  2394.351,    10.261578
  2394.401,    13.007607
  2394.451,    14.324859
  2394.501,    13.163340
  2394.551,     8.830334
  2394.602,     1.473057
  2394.652,    -7.946301
  2394.702,   -17.975166
  2394.752,   -27.199422
  2394.802,   -34.223253
  2394.852,   -37.795967
  2394.902,   -37.062503
  2394.952,   -31.867538
  2395.002,   -22.957129
  2395.052,   -12.017540
  2395.102,    -1.341594
  2395.152,     6.938582
  2395.202,    11.395390
  2395.252,    11.817484
  2395.302,     9.066565
  2395.352,     4.617062
  2395.402,    -0.038008
  2395.452,    -3.780213
  2395.502,    -5.741244
  2395.552,    -5.189961
  2395.602,    -2.058099
  2395.652,     2.712748
  2395.702,     7.355407
  2395.752,    10.267086
  2395.802,    10.704843
  2395.852,     8.868209
  2395.902,     5.469761
  2395.952,     1.367890
  2396.002,    -2.764266
  2396.052,    -6.162449
  2396.102,    -8.103743
  2396.152,    -8.078177
  2396.202,    -6.007963
  2396.252,    -2.548211
  2396.302,     1.235823
  2396.352,     4.315857
  2396.402,     5.876329
  2396.452,     5.401913
  2396.502,     2.700224
  2396.552,    -1.903250
  2396.602,    -7.523256
  2396.652,   -13.025650
  2396.702,   -17.395428
  2396.752,   -19.916066
  2396.802,   -20.156308
  2396.852,   -18.015067
  2396.902,   -13.741488
  2396.952,    -8.036601
  2397.002,    -2.020291
  2397.052,     2.951974
  2397.102,     5.754440
  2397.152,     5.921675
  2397.202,     3.840412
  2397.252,     0.567285
  2397.302,    -2.846766
  2397.352,    -5.811184
  2397.402,    -8.164919
  2397.452,    -9.759743
  2397.502,   -10.263292
  2397.552,    -9.299273
  2397.602,    -6.925724
  2397.652,    -3.774327
  2397.702,    -0.536614
  2397.752,     2.256937
  2397.802,     4.539792
  2397.852,     6.510930
  2397.902,     8.324498
  2397.952,     9.798413
  2398.002,    10.626618
  2398.052,    10.770558
  2398.102,    10.415257
  2398.152,     9.559194
  2398.202,     7.698930
  2398.252,     4.084076
  2398.302,    -1.825416
  2398.352,    -9.585413
  2398.402,   -17.697174
  2398.452,   -24.219559
  2398.502,   -27.559462
  2398.552,   -27.171713
  2398.602,   -23.331624
  2398.652,   -17.005020
  2398.702,    -9.594533
  2398.752,    -2.861688
  2398.802,     1.315668
  2398.852,     1.757100
  2398.902,    -1.375868
  2398.952,    -6.505145
  2399.002,   -11.475485
  2399.052,   -14.434622
  2399.102,   -14.335523
  2399.152,   -10.972770
  2399.202,    -4.968662
  2399.252,     2.437799
  2399.302,     9.697973
  2399.352,    15.513510
  2399.402,    19.099814
  2399.452,    20.302656
  2399.502,    19.358732
  2399.552,    16.789266
  2399.602,    13.201207
  2399.652,     9.141596
  2399.702,     5.046184
  2399.752,     1.048479
  2399.802,    -2.880344
  2399.852,    -6.857322
  2399.902,   -10.840742
  2399.952,   -14.412093
  2400.002,   -16.898102
  2400.052,   -17.769096
  2400.102,   -17.092963
  2400.152,   -15.523483
  2400.202,   -13.980024
  2400.252,   -13.062459
  2400.302,   -12.730038
  2400.352,   -12.433716
  2400.402,   -11.536292
  2400.452,    -9.553684
  2400.502,    -6.321840
  2400.552,    -2.239335
  2400.602,     1.919231
  2400.652,     5.165269
  2400.702,     6.684346
  2400.752,     5.997789
  2400.802,     3.259141
  2400.852,    -0.673363
  2400.902,    -4.664143
  2400.952,    -7.664020
  2401.002,    -9.072979
  2401.052,    -8.836128
  2401.102,    -7.138964
  2401.152,    -4.287659
  2401.202,    -0.589488
  2401.252,     3.432224
  2401.302,     7.066942
  2401.352,     9.660687
  2401.402,    10.753713
  2401.452,    10.092015
  2401.502,     7.710097
  2401.552,     3.920780
  2401.602,    -0.709986
  2401.652,    -5.606656
  2401.702,   -10.150082
  2401.752,   -13.688710
  2401.802,   -15.547606
  2401.852,   -15.263340
  2401.902,   -13.075242
  2401.952,    -9.761661
  2402.002,    -6.266098
  2402.052,    -3.327160
  2402.102,    -1.322224
  2402.152,    -0.487459
  2402.202,    -0.917053
  2402.252,    -2.430312
  2402.302,    -4.380284
  2402.352,    -5.884305
  2402.402,    -6.324198
  2402.452,    -5.833718
  2402.502,    -5.186309
  2402.552,    -5.244801
  2402.602,    -6.235110
  2402.652,    -7.710827
  2402.702,    -9.014332
  2402.752,    -9.786994
  2402.802,    -9.945589
  2402.852,    -9.322639
  2402.902,    -7.600696
  2402.952,    -4.524589
  2403.002,    -0.303404
  2403.052,     4.307218
  2403.102,     8.324015
  2403.152,    10.932479
  2403.202,    11.776637
  2403.252,    10.963255
  2403.302,     8.931236
  2403.352,     6.358164
  2403.402,     4.111228
  2403.452,     2.879903
  2403.502,     2.949381
  2403.552,     3.941922
  2403.602,     4.894255
  2403.652,     4.731182
  2403.702,     2.808426
  2403.752,    -0.919009
  2403.802,    -6.082204
  2403.852,   -12.018467
  2403.902,   -17.947395
  2403.952,   -22.891699
  2404.002,   -25.832911
  2404.052,   -26.041191
  2404.102,   -23.331726
  2404.152,   -18.137821
  2404.202,   -11.436391
  2404.252,    -4.375212
  2404.302,     1.970021
  2404.352,     6.802358
  2404.402,     9.732085
  2404.452,    10.761882
  2404.502,    10.394835
  2404.552,     9.285148
  2404.602,     7.942572
  2404.652,     6.559123
  2404.702,     5.296957
  2404.752,     4.298222
  2404.802,     3.544782
  2404.852,     2.839867
  2404.902,     1.973326
  2404.952,     0.808625
  2405.002,    -0.496937
  2405.052,    -1.614946
  2405.102,    -2.254102
  2405.152,    -2.327522
  2405.202,    -1.967568
  2405.252,    -1.348571
  2405.302,    -0.715258
  2405.352,    -0.431229
  2405.402,    -0.870106
  2405.452,    -2.237481
  2405.502,    -4.670238
  2405.552,    -8.245127
  2405.602,   -12.778515
  2405.652,   -17.678482
  2405.702,   -21.904159
  2405.752,   -24.294263
  2405.802,   -24.109162
  2405.852,   -21.157780
  2405.902,   -16.007688
  2405.952,    -9.792673
  2406.002,    -3.759204
  2406.052,     1.071477
  2406.102,     4.138056
  2406.152,     5.412857
  2406.202,     5.445191
  2406.252,     5.003344
  2406.302,     4.759456
  2406.352,     4.935716
  2406.402,     5.302970
  2406.452,     5.196515
  2406.502,     3.870504
  2406.552,     0.865413
  2406.602,    -3.615447
  2406.652,    -8.806983
  2406.702,   -13.556447
  2406.752,   -16.515979
  2406.802,   -16.524599
  2406.852,   -12.972982
  2406.902,    -6.252848
  2406.952,     2.219012
  2407.002,    10.415770
  2407.052,    16.395361
  2407.102,    18.792851
  2407.152,    17.167604
  2407.202,    12.072919
  2407.252,     4.767568
  2407.302,    -3.132046
  2407.352,   -10.141363
  2407.402,   -15.192482
  2407.452,   -17.832110
  2407.502,   -18.183666
  2407.552,   -16.713183
  2407.602,   -13.941423
  2407.652,   -10.298806
  2407.702,    -6.300731
  2407.752,    -2.599625
  2407.802,     0.169076
  2407.852,     1.467642
  2407.902,     1.109467
  2407.952,    -0.622725
  2408.002,    -3.155455
  2408.052,    -5.690033
  2408.102,    -7.568353
  2408.152,    -8.418554
  2408.202,    -8.348123
  2408.252,    -7.711891
  2408.302,    -6.808518
  2408.352,    -5.599368
  2408.402,    -3.930968
  2408.452,    -1.667912
  2408.502,     1.142756
  2408.552,     4.401307
  2408.602,     8.034593
  2408.652,    11.771742
  2408.702,    15.086630
  2408.752,    17.237738
  2408.802,    17.454167
  2408.852,    15.187618
  2408.902,    10.347901
  2408.952,     3.468437
  2409.002,    -4.411966
  2409.052,   -12.013315
  2409.102,   -18.257267
  2409.152,   -22.415737
  2409.202,   -24.095072
  2409.252,   -23.153305
  2409.302,   -19.801924
  2409.352,   -14.598933
  2409.402,    -8.475645
  2409.452,    -2.497636
  2409.502,     2.274586
  2409.552,     5.060587
  2409.602,     5.519305
  2409.652,     3.841728
  2409.702,     0.741501
  2409.752,    -2.753598
  2409.802,    -5.426581
  2409.852,    -6.400487
  2409.902,    -5.536469
