frequency,refractiveIndex,absorption
0.0006107526277516292,2.0635754574277607,0.0057935773399539975
0.0012215052555032584,2.0605349893401885,0.023029764070760947
0.0018322578832548875,2.055552645291833,0.05128411360316944
0.002443010511006517,2.0487502877165986,0.08987868623007413
0.003053763138758146,2.0402877062349627,0.1379224464113505
0.003664515766509775,2.030353418418916,0.19436101577743065
0.004275268394261404,2.0191547770518086,0.2580306225666866
0.004886021022013034,2.006908300306403,0.3277114072031477
0.005496773649764663,1.9938309462749622,0.40217618421186135
0.006107526277516292,1.9801328014082837,0.480232013478338
0.006718278905267922,1.966011402295568,0.5607532079247124
0.00732903153301955,1.951647702282852,0.6427054934648925
0.00793978416077118,1.9372035474318732,0.7251618381402247
0.008550536788522809,1.9228204410477814,0.8073109664820087
0.009161289416274438,1.9086193421302877,0.8884598147771194
0.009772042044026067,1.8947012458540504,0.9680312300612925
0.010382794671777697,1.8811483190783376,1.0455581386780306
0.010993547299529326,1.8680253992533247,1.1206752658702113
0.011604299927280955,1.8553817028368014,1.1931093168678568
0.012215052555032585,1.8432526246407182,1.2626683579500753
0.012825805182784214,1.8316615400734646,1.3292309768988035
0.013436557810535843,1.8206215473707068,1.3927356621238869
0.014047310438287471,1.8101371068939174,1.4531707199049988
0.0146580630660391,1.8002055501260743,1.5105649487726918
0.015268815693790731,1.7908184429135283,1.564979207307586
0.01587956832154236,1.7819627965305727,1.616498944717624
0.01649032094929399,1.77362212688418,1.665227710736604
0.017101073577045618,1.765777367100744,1.7112816210958322
0.01771182620479725,1.7584076422020933,1.7547847255544629
0.018322578832548876,1.7514909168627477,1.7958652057394222
0.018933331460300507,1.745004528569295,1.834652318337445
0.019544084088052135,1.7389256190677296,1.8712739939954621
0.020154836715803762,1.7332314769538464,1.9058550021729654
0.020765589343555393,1.727899803785174,1.9385155958063154
0.02137634197130702,1.7229089153016113,1.9693705558043608
0.021987094599058652,1.7182378883489633,1.9985285630951788
0.02259784722681028,1.7138666629975248,2.0260918343837537
0.02320859985456191,1.7097761082108847,2.052155966350552
0.023819352482313542,1.7059480583031152,2.0768099412863545
0.02443010511006517,1.702365326364755,2.100136254834524
0.025040857737816797,1.6990116998645344,2.1222111334327156
0.025651610365568428,1.6958719227583974,2.143104815137314
0.026262362993320056,1.6929316676654897,2.1628818727681174
0.026873115621071687,1.6901775010013218,2.181601562766094
0.027483868248823314,1.6875968433861788,2.1993181868749003
0.028094620876574942,1.6851779271640521,2.216081456819198
0.028705373504326573,1.6829097524648173,2.2319368546406255
0.0293161261320782,1.6807820429103968,2.2469259833499193
0.029926878759829835,1.678785201794455,2.261086904138152
0.030537631387581463,1.6769102693461042,2.2744544576303696
0.03114838401533309,1.6751488815126883,2.2870605676253852
0.03175913664308472,1.6734932305577743,2.2989345264955956
0.03236988927083635,1.6719360276616184,2.3101032619690933
0.03298064189858798,1.6704704676271196,2.320591585419207
0.03359139452633961,1.6690901957299105,2.330422422073347
0.034202147154091235,1.6677892767029847,2.3396170237539957
0.03481289978184286,1.666562165810749,2.34819516489331
0.0354236524095945,1.6654036819420526,2.35617532264314
0.036034405037346125,1.6643089826343467,2.3635748419410096
0.03664515766509775,1.6632735409299206,2.3704100864040973
0.03725591029284938,1.662293123958703,2.3766965759143006
0.037866662920601014,1.6613637731392759,2.382449111732861
0.038477415548352635,1.6604817858896206,2.387681889951149
0.03908816817610427,1.6596436987409813,2.392408604043971
0.039698920803855904,1.6588462717514734,2.396642537250485
0.040309673431607525,1.6580864741203694,2.400396645463492
0.04092042605935916,1.657361470908858,2.403683631265763
0.04153117868711079,1.6566686107783841,2.4065160097091214
0.04214193131486242,1.6560054146631173,2.4089061663929465
0.04275268394261404,1.6553695652986502,2.4108664083605156
0.04336343657036568,1.6547588975343994,2.41240900829712
0.043974189198117304,1.6541713893625398,2.4135462424814227
0.04458494182586893,1.6536051536013419,2.414290422911812
0.04519569445362056,1.6530584301756646,2.4146539240032676
0.045806447081372194,1.6525295789419336,2.414649204224645
0.04641719970912382,1.652017073009275,2.4142888230256108
0.04702795233687545,1.6515194925125203,2.4135854533814447
0.047638704964627084,1.6510355187965995,2.41255189026639
0.048249457592378704,1.6505639289753402,2.4112010553503365
0.04886021022013034,1.6501035908309865,2.409545998198531
0.049470962847881966,1.6496534580237638,2.407599894241198
0.050081715475633594,1.6492125655836232,2.4053760397678996
0.05069246810338522,1.6487800256588765,2.4028878441908814
0.051303220731136856,1.6483550234988191,2.400148819810951
0.05191397335888848,1.6479368136496229,2.397172569311414
0.05252472598664011,1.647524716344782,2.3939727711961765
0.053135478614391746,1.647118114073267,2.39056316338055
0.05374623124214337,1.6467164483101913,2.3869575251358155
0.054356983869895,1.6463192163963787,2.383169657581431
0.05496773649764663,1.6459259685546188,2.3792133629117345
0.05557848912539826,1.6455363050316762,2.3751024225377226
0.056189241753149884,1.6451498733563168,2.370850574317508
0.05679999438090152,1.644766365704666,2.3664714890430916
0.057410747008653146,1.6443855163652061,2.361978746344682
0.05802149963640477,1.644007099296565,2.357385810167209
0.0586322522641564,1.6436309257721038,2.352706003968099
0.059243004891908035,1.6432568421059668,2.3479524857781535
0.05985375751965967,1.6428847274559606,2.3431382232623106
0.06046451014741129,1.6425144916991836,2.3382759689098336
0.061075262775162925,1.6421460733768496,2.3333782354771873
0.06168601540291455,1.6417794377052404,2.3284572718018537
0.06229676803066618,1.641414574650115,2.3235250390967304
0.0629075206584178,1.641051497062279,2.31859318783079
0.06351827328616944,1.640690238872349,2.3136730352936614
0.06412902591392107,1.6403308533430334,2.3087755439362336
0.0647397785416727,1.639973411377496,2.303911300572874
0.06535053116942433,1.6396179998825877,2.2990904965247623
0.06596128379717596,1.6392647201859285,2.294322908777151
0.0665720364249276,1.6389136865059757,2.2896178822178603
0.06718278905267921,1.6385650244743462,2.284984313017644
0.06779354168043085,1.6382188697097928,2.2804306332075988
0.06840429430818247,1.6378753664433006,2.275964796502142
0.06901504693593409,1.6375346661938848,2.2715942654111982
0.06962579956368573,1.6371969264946964,2.267325999678766
0.07023655219143736,1.6368623096691024,2.2631664460801
0.070847304819189,1.6365309816564548,2.2591215296036586
0.07145805744694061,1.6362031108872601,2.2551966460394537
0.07206881007469225,1.6358788672075006,2.2513966559895895
0.07267956270244387,1.6355584208518392,2.2477258803123448
0.0732903153301955,1.635241941465457,2.244188097006126
0.07390106795794714,1.634929597174257,2.2407865395346436
0.07451182058569876,1.634621553703151,2.2375238965907744
0.0751225732134504,1.634317973542129,2.234402313291719
0.07573332584120203,1.634019015159794,2.2314233937940884
0.07634407846895366,1.6337248322640165,2.22858820531346
0.07695483109670527,1.6334355731093269,2.225897283529018
0.0775655837244569,1.633151379850647,2.223350639350466
0.07817633635220854,1.6328723879429312,2.220947767020126
0.07878708897996017,1.6325987255862313,2.218687653520793
0.07939784160771181,1.632330513215697,2.216568789255467
0.08000859423546343,1.6320678630359715,2.2145891799627573
0.08061934686321505,1.6318108785994059,2.212746359828619
0.08123009949096668,1.6315596544274864,2.2110374057518167
0.08184085211871832,1.6313142756748324,2.2094589527183413
0.08245160474646994,1.6310748178350876,2.2080072102370547
0.08306235737422157,1.630841346487984,2.2066779797863747
0.08367311000197321,1.6306139170868403,2.2054666732199304
0.08428386262972484,1.6303925747856927,2.204368332076098
0.08489461525747646,1.6301773543052565,2.2033776477351084
0.08550536788522808,1.62996827983685,2.2024889823650535
0.08611612051297972,1.6297653649834027,2.201696390596064
0.08672687314073135,1.6295686127366091,2.2009936418609306
0.08733762576848299,1.6293780154892885,2.200374243338097
0.08794837839623461,1.6291935550819439,2.1998314634323495
0.08855913102398623,1.6290152028825078,2.1993583557263774
0.08916988365173786,1.6288429198982064,2.198947783335992
0.0897806362794895,1.628676656918459,2.198592443600477
0.09039138890724112,1.6285163546876913,2.198284893038528
0.09100214153499275,1.6283619441069004,2.1980175725001767
0.09161289416274439,1.6282133464628001,2.1977828324434854
0.09222364679049602,1.6280704736833171,2.1975729582659915
0.09283439941824764,1.627933228618206,2.197380195618928
0.09344515204599926,1.6278015053435007,2.197196775633918
0.0940559046737509,1.6276751894885138,2.1970149399906944
0.09466665730150253,1.6275541585840423,2.196826965755632
0.09527740992925417,1.627438282430445,2.1966251899209706
0.09588816255700579,1.627327423484202,2.1964020335756707
0.09649891518475741,1.6272214372615739,2.196150025639422
0.09710966781250904,1.627120172757932,2.1958618260931018
0.09772042044026068,1.6270234728813364,2.1955302486395007
0.09833117306801231,1.6269311748989082,2.1951482827307625
0.09894192569576393,1.6268431108945303,2.1947091148996742
0.09955267832351557,1.6267591082364121,2.194206149334795
0.10016343095126719,1.6266789900530314,2.193633027641465
0.10077418357901882,1.6266025757159648,2.1929836477325373
0.10138493620677044,1.6265296813281347,2.192252181796054
0.10199568883452208,1.6264601202159663,2.1914330932898567
0.10260644146227371,1.626393703423991,2.1905211529152826
0.10321719409002535,1.6263302402104187,2.189511453526425
0.10382794671777695,1.6262695385422132,2.188399423933905
0.10443869934552859,1.6262114055882382,2.1871808415663647
0.10504945197328022,1.6261556482090405,2.1858518439556764
0.10566020460103186,1.6261020734418763,2.1844089390166554
0.10627095722878349,1.6260504889796008,2.182849014095385
0.10688170985653511,1.62600070364209,2.181169343764368
0.10749246248428675,1.6259525278388793,2.179367596347093
0.10810321511203837,1.6259057740217568,2.1774418391588175
0.10871396773979,1.6258602571260883,2.1753905424543762
0.10932472036754162,1.6258157949996963,2.173212582078399
0.10993547299529326,1.6257722088181685,2.170907240817737
0.11054622562304489,1.625729323485518,2.1684742084599917
0.11115697825079653,1.6256869680191866,2.1659135805667287
0.11176773087854816,1.6256449759184346,2.163225855973773
0.11237848350629977,1.6256031855152209,2.1604119330359444
0.1129892361340514,1.6255614403067502,2.1574731046371562
0.11359998876180304,1.6255195892689274,2.154411051990986
0.11421074138955467,1.6254774871500346,2.1512278372614473
0.11482149401730629,1.6254349947440052,2.147925895036434
0.11543224664505793,1.6253919791427638,2.144508022691092
0.11604299927280955,1.6253483139671512,2.1409773696812753
0.11665375190056118,1.6253038795760508,2.1373374258107347
0.1172645045283128,1.6252585632533953,2.1335920085191638
0.11787525715606444,1.6252122593728107,2.1297452492407434
0.11848600978381607,1.6251648695397363,2.1258015788857842
0.1190967624115677,1.6251163027109328,2.1217657125008658
0.11970751503931934,1.6250664752913566,2.1176426331647273
0.12031826766707095,1.6250153112084704,2.1134375751792973
0.12092902029482258,1.6249627419641122,2.1091560066174493
0.12153977292257422,1.6249087066641368,2.104803611290006
0.12215052555032585,1.6248531520260903,2.1003862701963474
0.12276127817807747,1.6247960323652637,2.0959100425236157
0.1233720308058291,1.6247373095595279,2.091381146260554
0.12398278343358073,1.6246769529934109,2.0868059384922932
0.12459353606133236,1.6246149394819456,2.082190895442657
0.125204288689084,1.6245512531748625,2.077542592331238
0.1258150413168356,1.6244858854417608,2.072867683110755
0.12642579394458725,1.6244188347389374,2.0681728801516157
0.12703654657233887,1.624350106458602,2.063464933937953
0.12764729920009052,1.624279712761241,2.0587506128405644
0.12825805182784214,1.6242076723919425,2.0540366830286683
0.12886880445559376,1.624134010481513,2.0493298885833506
0.1294795570833454,1.62405875833327,2.0446369318720685
0.13009030971109703,1.6239819531963937,2.0399644542434654
0.13070106233884865,1.6239036380267733,2.03531901709839
0.13131181496660027,1.623823861236274,2.0307070833922496
0.13192256759435192,1.6237426764313907,2.026134999620579
0.13253332022210354,1.6236601421422527,2.021608978338138
0.1331440728498552,1.6235763215429548,2.01713508125877
0.13375482547760678,1.6234912821641982,2.012719202981332
0.13436557810535843,1.623405095599222,2.0083670553836033
0.13497633073311005,1.623317837204007,2.0040841527240874
0.1355870833608617,1.6232295857927275,1.9998757974882375
0.13619783598861332,1.6231404233294255,1.9957470670130533
0.13680858861636494,1.623050434616852,1.9917028009211626
0.13741934124411656,1.6229597069834358,1.9877475893920724
0.13803009387186818,1.6228683299692965,1.9838857622960668
0.13864084649961983,1.6227763950122205,1.9801213792126675
0.13925159912737145,1.6226839951344814,1.9764582203524363
0.1398623517551231,1.6225912246313798,1.9728997783988511
0.14047310438287472,1.6224981787623463,1.9694492512831574
0.14108385701062634,1.6224049534454144,1.966109535901889
0.141694609638378,1.622311644955865,1.9628832227854385
0.1423053622661296,1.622218349629792,1.9597725917212143
0.14291611489388123,1.6221251635733283,1.9567796083332816
0.14352686752163288,1.62203218237822,1.9539059216177999
0.1441376201493845,1.6219395008444186,1.9511528624294432
0.14474837277713615,1.6218472127103276,1.9485214429133997
0.14535912540488774,1.6217554103912868,1.9460123568728331
0.14596987803263936,1.621664184726874,1.9436259810610772
0.146580630660391,1.6215736247375343,1.941362377383665
0.14719138328814263,1.6214838173910404,1.939221295994479
0.14780213591589428,1.621394847379232,1.9372021792669336
0.1484128885436459,1.6213067969054527,1.935304166619301
0.14902364117139752,1.6212197454830692,1.9335261001712047
0.14963439379914917,1.621133769745415,1.9318665312063568
0.1502451464269008,1.6210489432674688,1.9303237274142964
0.15085589905465244,1.6209653363995373,1.9288956808824207
0.15146665168240406,1.620883016113184,1.9275801168078766
0.15207740431015568,1.620802045859595,1.9263745028967059
0.15268815693790733,1.6207224854405549,1.9252760594169545
0.15329890956565892,1.6206443908921528,1.924281769869951
0.15390966219341054,1.6205678143813214,1.9233883922436268
0.1545204148211622,1.6204928041152595,1.9225924708097697
0.1551311674489138,1.6204194042637676,1.9218903484261214
0.15574192007666546,1.6203476548944897,1.921278179303729
0.15635267270441708,1.620277591921014,1.9207519421978452
0.1569634253321687,1.6202092470637648,1.920307453981356
0.15757417795992035,1.6201426478235752,1.919940383557266
0.15818493058767197,1.6200778174678083,1.9196462660682838
0.15879568321542362,1.6200147750288578,1.919420517358447
0.15940643584317524,1.6199535353148315,1.9192584486440463
0.16001718847092686,1.619894108932195,1.9191552813484785
0.1606279410986785,1.6198365023201207,1.919106162057384
0.1612386937264301,1.6197807177962626,1.919106177548762
0.16184944635418172,1.619726753613656,1.9191503698542633
0.16246019898193337,1.6196746040284005,1.9192337513068822
0.163070951609685,1.619624259377787,1.9193513195314127
0.16368170423743664,1.6195757061684768,1.9194980723338344
0.16429245686518826,1.6195289271743427,1.9196690224467996
0.16490320949293988,1.6194839015435476,1.9198592120886429
0.16551396212069153,1.6194406049144217,1.9200637272946233
0.16612471474844315,1.6193990095396826,1.9202777119792425
0.1667354673761948,1.6193590844185197,1.9204963816901528
0.16734622000394642,1.6193207954360536,1.9207150370152006
0.16795697263169804,1.6192841055096676,1.920929076604689
0.16856772525944969,1.61924897474169,1.9211340097732903
0.16917847788720128,1.6192153605778992,1.9213254686465717
0.16978923051495293,1.6191832179713108,1.9214992198193102
0.17039998314270455,1.6191524995507003,1.9216511754938372
0.17101073577045617,1.6191231557933048,1.921777404068766
0.17162148839820782,1.6190951352011402,1.9218741401502453
0.17223224102595944,1.6190683844803746,1.9219377939593656
0.17284299365371106,1.6190428487231845,1.921964960111918
0.1734537462814627,1.6190184715915323,1.9219524257484009
0.17406449890921433,1.6189951955022899,1.921897177994193
0.17467525153696598,1.61897296181315,1.921796410732361
0.1752860041647176,1.6189517110087632,1.921647530673445
0.17589675679246922,1.618931382886543,1.9214481627089426
0.17650750942022086,1.6189119167415942,1.9211961545378364
0.17711826204797246,1.6188932515502248,1.9208895805572574
0.1777290146757241,1.6188753261515116,1.9205267450111583
0.17833976730347573,1.6188580794264038,1.9201061843934242
0.17895051993122735,1.618841450473864,1.9196266691036437
0.179561272558979,1.6188253787835527,1.9190872043568403
0.18017202518673062,1.6188098044045913,1.9184870303501305
0.18078277781448224,1.618794668109942,1.9178256216924812
0.18139353044223389,1.6187799115559733,1.9171026861050215
0.1820042830699855,1.6187654774367972,1.916318162402923
0.18261503569773715,1.6187513096329764,1.915472217770829
0.18322578832548878,1.6187373533542384,1.9145652443470704
0.1838365409532404,1.618723555275842,1.9135978551331856
0.18444729358099204,1.6187098636682715,1.912570879248235
0.18505804620874364,1.6186962285199618,1.9114853565483847
0.18566879883649529,1.6186826016527773,1.9103425316351579
0.1862795514642469,1.6186689368299996,1.90914384727659
0.18689030409199853,1.6186551898565984,1.907890937268227
0.18750105671975018,1.6186413186715973,1.906585618761677
0.1881118093475018,1.618627283432364,1.905229884090388
0.18872256197525342,1.6186130465906867,1.90382589212384
0.18933331460300507,1.6185985729605266,1.9023759591822542
0.18994406723075669,1.6185838297773663,1.9008825495451207
0.19055481985850833,1.6185687867490912,1.8993482655883915
0.19116557248625995,1.6185534160983865,1.897775837585571
0.19177632511401158,1.6185376925966402,1.8961681132085324
0.19238707774176322,1.6185215935893864,1.8945280467656849
0.19299783036951482,1.6185050990133358,1.8928586882138783
0.19360858299726647,1.6184881914050775,1.8911631719827438
0.19421933562501809,1.618470855901554,1.8894447056485306
0.1948300882527697,1.618453080232439,1.88770655849643
0.19544084088052135,1.6184348547045713,1.8859520500086644
0.19605159350827298,1.6184161721786194,1.884184538317112
0.19666234613602462,1.6183970280381785,1.882407408657417
0.19727309876377624,1.6183774201515115,1.8806240618624595
0.19788385139152787,1.6183573488261804,1.8788379029315148
0.1984946040192795,1.6183368167568213,1.8770523297119155
0.19910535664703113,1.6183158289663397,1.8752707217277205
0.19971610927478275,1.6182943927408184,1.8734964291907197
0.20032686190253438,1.618272517558443,1.8717327622270936
0.200937614530286,1.6182502150127698,1.8699829803521069
0.20154836715803764,1.6182274987306686,1.8682502822244988
0.20215911978578927,1.6182043842852825,1.8665377957104143
0.20276987241354089,1.618180889104366,1.8648485682857783
0.20338062504129253,1.6181570323743644,1.8631855578046823
0.20399137766904415,1.6181328349406001,1.8615516236591976
0.2046021302967958,1.6181083192039556,1.859949518355301
0.20521288292454742,1.6180835090144245,1.8583818795275968
0.20582363555229904,1.6180584295619267,1.8568512224137088
0.2064343881800507,1.61803310726477,1.8553599328077357
0.2070451408078023,1.6180075696561511,1.85391026051042
0.2076558934355539,1.617981845269085,1.8525043132916008
0.20826664606330555,1.6179559635201528,1.8511440513790518
0.20887739869105718,1.6179299545924484,1.849831282485585
0.20948815131880882,1.6179038493181126,1.848567657384957
0.21009890394656044,1.6178776790608262,1.8473546660445515
0.21070965657431207,1.6178514755986335,1.8461936343214445
0.2113204092020637,1.6178252710074637,1.845085721226494
0.21193116182981533,1.6177990975456993,1.8440319167590948
