frequency,refractiveIndex,absorption
0.0006107526277516292,2.662062025407599,0.02998034826616477
0.0012215052555032584,2.6250174204400643,0.1154883016751578
0.0018322578832548875,2.56945613709683,0.2450510582071816
0.002443010511006517,2.50208942103813,0.40420783875273975
0.003053763138758146,2.4290607453331963,0.5791878148996744
0.003664515766509775,2.3550725511718626,0.7588744980152009
0.004275268394261404,2.2832922148429633,0.9352487038692305
0.004886021022013034,2.2156277912360895,1.103027636751747
0.005496773649764663,2.1530815814364592,1.2590566606065534
0.006107526277516292,2.096053409361671,1.4017267291057733
0.006718278905267922,2.0445634514474835,1.5305051701657786
0.00732903153301955,1.9984039085199685,1.6455840463568154
0.00793978416077118,1.9572382356332767,1.7476239887791827
0.008550536788522809,1.920664821687795,1.8375690985404347
0.009161289416274438,1.8882575039427028,1.9165135821852033
0.009772042044026067,1.8595911692916078,1.9856065075212244
0.010382794671777697,1.8342576745338979,2.0459853654226374
0.010993547299529326,1.8118753447340883,2.0987318247896414
0.011604299927280955,1.7920941070450376,2.1448446161166372
0.012215052555032585,1.7745976149537535,2.18522538773821
0.012825805182784214,1.7591033077446798,2.2206740219163548
0.013436557810535843,1.745361096763302,2.251890472744474
0.014047310438287471,1.7331511965630386,2.279480756410362
0.0146580630660391,1.7222814870962104,2.303965275742557
0.015268815693790731,1.7125846868499035,2.325788161774713
0.01587956832154236,1.70391553065127,2.345326737950968
0.01649032094929399,1.6961480777111018,2.3629005459295085
0.017101073577045618,1.6891732237075188,2.3787796184930285
0.01771182620479725,1.6828964532216113,2.3931918566462076
0.018322578832548876,1.6772358430949352,2.4063294800233677
0.018933331460300507,1.6721203106789535,2.418354587594813
0.019544084088052135,1.6674880911008738,2.4294039025799457
0.020154836715803762,1.6632854225755243,2.4395927918736198
0.020765589343555393,1.6594654168769516,2.449018653845777
0.02137634197130702,1.6559870921782647,2.4577637644490884
0.021987094599058652,1.6528145467447,2.465897663734257
0.02259784722681028,1.6499162538589602,2.473479155400034
0.02320859985456191,1.6472644605022966,2.4805579822587625
0.023819352482313542,1.6448346744819806,2.4871762312448147
0.02443010511006517,1.642605226753847,2.493369513213575
0.025040857737816797,1.6405568975688605,2.4991679554177884
0.025651610365568428,1.6386725967467186,2.5045970382149383
0.026262362993320056,1.6369370898436015,2.5096783021887483
0.026873115621071687,1.6353367632452462,2.5144299473595084
0.027483868248823314,1.6338594222980283,2.5188673424011156
0.028094620876574942,1.6324941175098322,2.5230034586681973
0.028705373504326573,1.6312309946299244,2.5268492412628376
0.0293161261320782,1.6300611650724932,2.530413927249271
0.029926878759829835,1.6289765936998755,2.5337053193777836
0.030537631387581463,1.6279700014447234,2.536730022242271
0.03114838401533309,1.627034780639271,2.5394936466130815
0.03175913664308472,1.6261649212463383,2.542000986713041
0.03236988927083635,1.6253549464608927,2.5442561744032313
0.03298064189858798,1.6245998563813904,2.5462628135831133
0.03359139452633961,1.6238950786438928,2.5480240975640345
0.034202147154091235,1.6232364250751792,2.5495429117240027
0.03481289978184286,1.6226200535586806,2.5508219233777765
0.0354236524095945,1.622042434423291,2.5518636604872444
0.036034405037346125,1.6215003207634247,2.552670580579993
0.03664515766509775,1.6209907221820041,2.553245131030905
0.03725591029284938,1.6205108815187665,2.5535898016840406
0.037866662920601014,1.6200582541864514,2.553707170644674
0.038477415548352635,1.6196304897886233,2.553599943948402
0.03908816817610427,1.6192254157366848,2.553270989711708
0.039698920803855904,1.6188410226210328,2.55272336728352
0.040309673431607525,1.6184754511233825,2.5519603518455223
0.04092042605935916,1.6181269802848424,2.5509854548507884
0.04153117868711079,1.6177940169680263,2.549802440640078
0.04214193131486242,1.6174750863719156,2.548415339535143
0.04275268394261404,1.617168823475881,2.5468284576738673
0.04336343657036568,1.6168739653045328,2.5450463838242703
0.043974189198117304,1.6165893439183516,2.5430739933911672
0.04458494182586893,1.6163138800465937,2.540916449810028
0.04519569445362056,1.6160465772890003,2.538579203507024
0.045806447081372194,1.615786516821617,2.5360679885912014
0.04641719970912382,1.615532852549689,2.5333888174343127
0.04702795233687545,1.6152848066573366,2.5305479732851537
0.047638704964627084,1.6150416655095858,2.5275520010582504
0.048249457592378704,1.6148027758675416,2.5244076964308824
0.04886021022013034,1.6145675413820437,2.5211220933780316
0.049470962847881966,1.6143354193351722,2.5177024502705736
0.050081715475633594,1.6141059176025458,2.514156234659051
0.05069246810338522,1.6138785918124923,2.51049110686238
0.051303220731136856,1.6136530426809736,2.506714902478623
0.05191397335888848,1.6134289135036137,2.5028356139324646
0.05252472598664011,1.6132058877883786,2.498861371172239
0.053135478614391746,1.6129836870144232,2.49480042162713
0.05374623124214337,1.6127620685043307,2.4906611095332827
0.054356983869895,1.6125408233985479,2.4864518547354955
0.05496773649764663,1.6123197747221654,2.482181131068897
0.05557848912539826,1.61209877553543,2.4778574444229373
0.056189241753149884,1.6118777071604613,2.4734893105874893
0.05679999438090152,1.6116564774776132,2.4690852329782884
0.057410747008653146,1.6114350192857767,2.464653680336309
0.05802149963640477,1.6112132887216835,2.460203064492783
0.0586322522641564,1.6109912637339538,2.455741718288399
0.059243004891908035,1.610768942608221,2.4512778737321637
0.05985375751965967,1.6105463425401945,2.446819640481982
0.06046451014741129,1.6103234982539996,2.4423749847257277
0.061075262775162925,1.610100460663529,2.4379517085374136
0.06168601540291455,1.6098772955749039,2.433557429780275
0.06229676803066618,1.6096540824284646,2.4291995626239
0.0629075206584178,1.609430913078969,2.4248852987391314
0.06351827328616944,1.6092078906129266,2.420621589230638
0.06412902591392107,1.6089851282021859,2.416415127362627
0.0647397785416727,1.6087627479930813,2.4122723321297084
0.06535053116942433,1.608540880030581,2.408199332720618
0.06596128379717596,1.6083196612170085,2.4042019539184962
0.0665720364249276,1.6080992343050158,2.4002857024777815
0.06718278905267921,1.6078797469245596,2.396455754513374
0.06779354168043085,1.6076613506437263,2.392716943934331
0.06840429430818247,1.6074442000632712,2.3890737519500997
0.06901504693593409,1.6072284519448163,2.385530297673851
0.06962579956368573,1.6070142643726597,2.382090329843512
0.07023655219143736,1.6068017959491763,2.378757219677779
0.070847304819189,1.606591205023812,2.3755339548804892
0.07145805744694061,1.6063826489556725,2.372423134803553
0.07206881007469225,1.6061762834097142,2.369426966775131
0.07267956270244387,1.605972261686535,2.366547263596487
0.0732903153301955,1.605770734085765,2.3637854422077433
0.07390106795794714,1.605571847303038,2.361142523519515
0.07451182058569876,1.6053757438605076,2.3586191334045497
0.0751225732134504,1.6051825615708641,2.3562155048403794
0.07573332584120203,1.6049924330347838,2.35393148119103
0.07634407846895366,1.6048054851717195,2.3517665206132596
0.07695483109670527,1.6046218387839246,2.3497197015696494
0.0775655837244569,1.6044416081535697,2.3477897294285524
0.07817633635220854,1.6042649006728045,2.3459749441278777
0.07878708897996017,1.604091816506563,2.3442733288774913
0.07939784160771181,1.6039224482879189,2.342682519872073
0.08000859423546343,1.603756880845737,2.3411998169840493
0.08061934686321505,1.6035951909643622,2.339822195403728
0.08123009949096668,1.6034374471750505,2.3385463181912
0.08184085211871832,1.60328370957881,2.3373685497025076
0.08245160474646994,1.6031340297003003,2.3362849698499626
0.08306235737422157,1.6029884503724012,2.3352913891544533
0.08367311000197321,1.602847005651027,2.3343833645454004
0.08428386262972484,1.6027097207597345,2.3335562158615764
0.08489461525747646,1.6025766120636364,2.3328050430044303
0.08550536788522808,1.6024476870720874,2.332124743692964
0.08611612051297972,1.6023229444695892,2.3315100317677726
0.08672687314073135,1.6022023741743117,2.330955455989694
0.08733762576848299,1.6020859574235868,2.3304554192767903
0.08794837839623461,1.6019736668856992,2.3300041983219244
0.08855913102398623,1.601865466797253,2.329595963531349
0.08916988365173786,1.6017613131253532,2.329224799223574
0.0897806362794895,1.601661153753792,2.3288847240263215
0.09039138890724112,1.6015649286923939,2.32856971140824
0.09100214153499275,1.6014725703086332,2.3282737102813997
0.09161289416274439,1.6013840035805758,2.327990665609156
0.09222364679049602,1.6012991463701791,2.3277145389541243
0.09283439941824764,1.6012179097159152,2.32743932890003
0.09344515204599926,1.60114019814366,2.327159091281291
0.0940559046737509,1.6010659099947318,2.326867959154176
0.09466665730150253,1.6009949377699368,2.326560162443647
0.09527740992925417,1.600927168488427,2.3262300472005033
0.09588816255700579,1.6008624840601462,2.32587209440433
0.09649891518475741,1.6008007616706015,2.3254809382485506
0.09710966781250904,1.6007418741766624,2.3250513838456164
0.09772042044026068,1.600685690512063,2.3245784242914382
0.09833117306801231,1.600632076101256,2.3240572570304483
0.09894192569576393,1.6005808932802374,2.32348329946464
0.09955267832351557,1.6005320017229505,2.322852203752196
0.10016343095126719,1.6004852588718539,2.3221598707443696
0.10077418357901882,1.6004405203712337,2.321402463011753
0.10138493620677044,1.6003976405018288,2.320576416914651
0.10199568883452208,1.6003564726153376,2.3196784536754413
0.10260644146227371,1.6003168695673895,2.318705589414549
0.10321719409002535,1.6002786841475463,2.317655144115627
0.10382794671777695,1.6002417695049505,2.316524749489326
0.10443869934552859,1.6002059795682249,2.3153123557097013
0.10504945197328022,1.6001711694582734,2.314016237001122
0.10566020460103186,1.6001371958926538,2.312634996058738
0.10627095722878349,1.600103917580239,2.311167567289585
0.10688170985653511,1.6000711956049192,2.3096132188665632
0.10749246248428675,1.6000388937971437,2.30797155359208
0.10810321511203837,1.6000068790921633,2.3062425085729195
0.10871396773979,1.5999750218738793,2.3044263537129814
0.10932472036754162,1.5999431963032784,2.302523689034896
0.10993547299529326,1.599911280630491,2.300535440846606
0.11054622562304489,1.5998791574895885,2.2984628567734964
0.11115697825079653,1.599846714175299,2.296307499681158
0.11176773087854816,1.599813842900913,2.2940712405182917
0.11237848350629977,1.5997804410367131,2.2917562501136826
0.1129892361340514,1.5997464113283573,2.2893649899648487
0.11359998876180304,1.599711662094726,2.2869002020602065
0.11421074138955467,1.5996761074048234,2.2843648977800326
0.11482149401730629,1.5996396672334152,2.2817623459248657
0.11543224664505793,1.5996022675951729,2.27909605992321
0.11604299927280955,1.5995638406571697,2.2763697842732276
0.11665375190056118,1.5995243248296795,2.273587480275574
0.1172645045283128,1.5994836648352884,2.2707533111168914
0.11787525715606444,1.5994418117564377,2.2678716263654892
0.11848600978381607,1.5993987230615785,2.2649469459421834
0.1190967624115677,1.599354362610209,2.2619839436307796
0.11970751503931934,1.599308700637132,2.2589874301937107
0.12031826766707095,1.5992617137163572,2.2559623361589236
0.12092902029482258,1.5992133847051189,2.2529136943446035
0.12153977292257422,1.5991637026685768,2.2498466221884215
0.12215052555032585,1.5991126627857954,2.246766303947837
0.12276127817807747,1.5990602662376876,2.2436779728373226
0.1233720308058291,1.5990065200776304,2.2405868931679485
0.12398278343358073,1.5989514370855424,2.237498342553385
0.12459353606133236,1.5988950356062175,2.2344175942453557
0.125204288689084,1.5988373393727946,2.2313498996601355
0.1258150413168356,1.5987783773162334,2.228300471155662
0.12642579394458725,1.5987181833617317,2.225274465117175
0.12703654657233887,1.5986567962130216,2.222276965407115
0.12764729920009052,1.5985942591255162,2.2193129672328067
0.12825805182784214,1.5985306196692928,2.2163873614827216
0.12886880445559376,1.598465929482901,2.213504919580096
0.1294795570833454,1.5984002440190088,2.210670278899281
0.13009030971109703,1.5983336222828881,2.207887928788202
0.13070106233884865,1.5982661265647489,2.2051621972366524
0.13131181496660027,1.598197822166927,2.2024972382278944
0.13192256759435192,1.598128777126918,2.199897019807375
0.13253332022210354,1.5980590619372452,2.197365312899956
0.1331440728498552,1.5979887492631342,2.194905680903421
0.13375482547760678,1.597917913658943,2.192521470083319
0.13436557810535843,1.5978466312842874,2.1902158007908166
0.13497633073311005,1.597774979620772,2.1879915595224526
0.1355870833608617,1.597703037190215,2.1858513918371774
0.13619783598861332,1.5976308832752277,2.1837976961434404
0.13680858861636494,1.597558597642985,2.181832618365763
0.13741934124411656,1.5974862602729842,2.179958047497411
0.13803009387186818,1.5974139510895713,2.178175612042694
0.13864084649961983,1.597341749699966,2.176486677349774
0.13925159912737145,1.5972697351384952,2.1748923438317043
0.1398623517551231,1.597197985617703,2.173393446071
0.14047310438287472,1.5971265782869706,2.1719905528002035
0.14108385701062634,1.5970555889992422,2.1706839677480403
0.141694609638378,1.5969850920864215,2.169473731338842
0.1423053622661296,1.596915160143954,2.1683596232296463
0.14291611489388123,1.596845863825086,2.167341165667698
0.14352686752163288,1.5967772716452435,2.1664176276483555
0.1441376201493845,1.5967094497969363,2.1655880298512007
0.14474837277713615,1.5966424619755628,2.1648511503303904
0.14535912540488774,1.5965763692164376,2.1642055309326365
0.14596987803263936,1.5965112297433424,2.1636494844148926
0.146580630660391,1.5964470988288446,2.1631811022313943
0.14719138328814263,1.5963840286666078,2.1627982629583893
0.14780213591589428,1.5963220682558636,2.162498641322954
0.1484128885436459,1.5962612632981894,2.162279717800812
0.14902364117139752,1.5962016561066887,2.1621387887466263
0.14963439379914917,1.5961432855276427,2.1620729770188762
0.1502451464269008,1.5960861868746576,2.1620792430601483
0.15085589905465244,1.5960303918752996,2.1621543963925625
0.15146665168240406,1.5959759286301745,2.1622951074870556
0.15207740431015568,1.5959228215843642,2.1624979199643075
0.15268815693790733,1.5958710915111165,2.1627592630842427
0.15329890956565892,1.5958207555076265,2.163075464480652
0.15390966219341054,1.5957718270027346,2.1634427630964614
0.1545204148211622,1.595724315776322,2.163857322275457
0.1551311674489138,1.595678227990152,2.1643152429652033
0.15574192007666546,1.5956335662298868,2.164812576986495
0.15635267270441708,1.5955903295579572,2.165345340324256
0.1569634253321687,1.5955485135769591,2.165909526395056
0.15757417795992035,1.5955081105031994,2.1665011192466954
0.15818493058767197,1.595469109250003,2.167116106645916
0.15879568321542362,1.5954314955203568,2.16775049301054
0.15940643584317524,1.5953952519084493,2.168400312143368
0.16001718847092686,1.5953603580096345,2.169061639726006
0.1606279410986785,1.5953267905383341,2.1697306055315555
0.1612386937264301,1.5952945234533638,2.1704034053166428
0.16184944635418172,1.5952635280901637,2.171076312354303
0.16246019898193337,1.5952337732993764,2.1717456885707933
0.163070951609685,1.5952052255912266,2.172407995250964
0.16368170423743664,1.5951778492851176,2.1730598032785386
0.16429245686518826,1.5951516066638716,2.1736978028795346
0.16490320949293988,1.5951264581320128,2.174318812839006
0.16551396212069153,1.5951023623774991,2.1749197891632357
0.16612471474844315,1.595079276536298,2.175497833162046
0.1667354673761948,1.5950571563591929,2.1760501989276526
0.16734622000394642,1.5950359563802252,2.176574300189481
0.16795697263169804,1.5950156300861504,2.1770677165261842
0.16856772525944969,1.5949961300863211,2.1775281989192687
0.16917847788720128,1.594977408282388,2.1779536746346406
0.16978923051495293,1.594959416037242,2.1783422514216757
0.17039998314270455,1.5949421043426102,2.178692221021599
0.17101073577045617,1.5949254239847483,2.1790020619798414
0.17162148839820782,1.5949093257076759,2.1792704417598867
0.17223224102595944,1.5948937603734163,2.179496218158364
0.17284299365371106,1.594878679118737,2.179678440024465
0.1734537462814627,1.5948640335078803,2.1798163472888197
0.17406449890921433,1.594849775680824,2.1799093703100536
0.17467525153696598,1.5948358584966138,2.179957128549501
0.1752860041647176,1.5948222356713482,2.179959428587191
0.17589675679246922,1.5948088619104146,2.1799162614946965
0.17650750942022086,1.5947956930346088,2.1798277995827178
0.17711826204797246,1.5947826860997947,2.179694392543484
0.1777290146757241,1.5947697995097958,2.179516563010252
0.17833976730347573,1.594756993122236,2.1792950015582586
0.17895051993122735,1.5947442283470792,2.1790305611733167
0.179561272558979,1.594731468237657,2.178724251215952
0.18017202518673062,1.5947186775739928,2.178377230910746
0.18078277781448224,1.5947058229382745,2.1779908023920336
0.18139353044223389,1.5946928727823555,2.1775664033382154
0.1820042830699855,1.5946797974871991,2.1771055992284714
0.18261503569773715,1.594666569414208,2.176610075256292
0.18322578832548878,1.59465316294842,2.176081627935596
0.1838365409532404,1.59463955453358,2.175522156435292
0.18444729358099204,1.5946257226991238,2.1749336536792767
0.18505804620874364,1.5946116480791475,2.1743181972488306
0.18566879883649529,1.5945973134234628,2.173677940124742
0.1862795514642469,1.5945827036008604,2.1730151013065666
0.18689030409199853,1.5945678055947412,2.172331956346262
0.18750105671975018,1.5945526084912922,2.1716308278332237
0.1881118093475018,1.5945371034604148,2.170914075867311
0.18872256197525342,1.59452128372963,2.17018408855602
0.18933331460300507,1.594505144551213,2.16944327257113
0.18994406723075669,1.5944886831628267,2.168694043799352
0.19055481985850833,1.5944718987419402,2.167938818120846
0.19116557248625995,1.5944547923543435,2.16718000234788
0.19177632511401158,1.5944373668970728,2.1664199853553714
0.19238707774176322,1.5944196270360889,2.1656611294331993
0.19299783036951482,1.594401579139048,2.164905761889305
0.19360858299726647,1.5943832312035326,2.164156166930736
0.19421933562501809,1.5943645927811003,2.163414577848514
0.1948300882527697,1.5943456748975315,2.1626831695306086
0.19544084088052135,1.5943264899696523,2.161964051325325
0.19605159350827298,1.5943070517191182,2.1612592602761382
0.19666234613602462,1.594287375083547,2.160570754746886
0.19727309876377624,1.5942674761253843,2.1599004084545514
0.19788385139152787,1.5942473719388957,2.159250004924963
0.1984946040192795,1.5942270805556624,2.158621232385122
0.19910535664703113,1.594206620848973,2.1580156791034497
0.19971610927478275,1.5941860124374798,2.157434829187975
0.20032686190253438,1.5941652755884967,2.156880058850129
0.200937614530286,1.5941444311213024,2.1563526331401324
0.20154836715803764,1.5941235003108043,2.1558537031580465
0.20215911978578927,1.5941025047919108,2.155384303742628
0.20276987241354089,1.5940814664649494,2.1549453516383954
0.20338062504129253,1.5940604074024538,2.1545376441394373
0.20399137766904415,1.594039349757634,2.154161858206727
0.2046021302967958,1.5940183156748315,2.153818550053976
0.20521288292454742,1.593997327202238,2.153508155195405
0.20582363555229904,1.5939764062071595,2.153230988947163
0.2064343881800507,1.5939555742940694,2.15298724737248
0.2070451408078023,1.5939348527257018,2.152777008659293
0.2076558934355539,1.593914262347399,2.1526002349173656
0.20826664606330555,1.5938938235149251,2.152456774380871
0.20887739869105718,1.5938735560259347,2.152346364000795
0.20948815131880882,1.5938534790552623,2.1522686324104834
0.21009890394656044,1.5938336110941964,2.1522231032463637
0.21070965657431207,1.593813969893862,2.1522091988050005
0.2113204092020637,1.5937945724128402,2.1522262440163393
0.21193116182981533,1.5937754347691133,2.152273470712519
0.21254191445756698,1.5937565721964262,2.152350022170352
