frequency,refractiveIndex,absorption
0.0006107526277516292,1.7993206276561788,0.0009596870238010347
0.0012215052555032584,1.7991912688362641,0.0038361986587607507
0.0018322578832548875,1.7989760523966536,0.00862190093438977
0.002443010511006517,1.7986755482126808,0.01530411821449571
0.003053763138758146,1.7982905491081964,0.02386520415323761
0.003664515766509775,1.7978220659198403,0.034282640010966675
0.004275268394261404,1.7972713212438949,0.046529159328257796
0.004886021022013034,1.7966397419331237,0.06057289769981967
0.005496773649764663,1.7959289504234182,0.07637756615423545
0.006107526277516292,1.7951407549814131,0.09390264643433535
0.006718278905267922,1.794277138973727,0.11310360628927417
0.00732903153301955,1.793340249266696,0.1339321327353908
0.00793978416077118,1.7923323838716696,0.15633638112022658
0.008550536788522809,1.7912559789555327,0.18026123773348066
0.009161289416274438,1.7901135953389877,0.20564859365018623
0.009772042044026067,1.7889079046060916,0.23243762746501168
0.010382794671777697,1.7876416749481387,0.2605650945804162
0.010993547299529326,1.7863177568626236,0.28996562074448284
0.011604299927280955,1.7849390688247102,0.32057199759398813
0.012215052555032585,1.7835085830435002,0.35231547804256563
0.012825805182784214,1.7820293114096508,0.38512606945954003
0.013436557810535843,1.7805042917336926,0.41893282270902654
0.014047310438287471,1.7789365743668042,0.45366411525907135
0.0146580630660391,1.7773292092873245,0.48924792672219486
0.015268815693790731,1.7756852337274642,0.5256121053502045
0.01587956832154236,1.7740076604055195,0.5626846241732887
0.01649032094929399,1.7722994664197311,0.6003938256445424
0.017101073577045618,1.7705635828504618,0.6386686538218718
0.01771182620479725,1.7688028851084419,0.6774388732894845
0.018322578832548876,1.7670201840578401,0.7166352741866906
0.018933331460300507,1.7652182179343034,0.7561898628715227
0.019544084088052135,1.7633996450701288,0.7960360378996855
0.020154836715803762,1.7615670374309458,0.8361087511427817
0.020765589343555393,1.759722874961204,0.8763446540037534
0.02137634197130702,1.757869540729346,0.9166822288111436
0.021987094599058652,1.7560093168573965,0.9570619055853177
0.02259784722681028,1.7541443812146156,0.9974261644709352
0.02320859985456191,1.752276804849972,1.037719624218064
0.023819352482313542,1.750408550134257,1.077889117171719
0.02443010511006517,1.7485414695790764,1.117883751295459
0.025040857737816797,1.7466773052971383,1.1576549598080088
0.025651610365568428,1.7448176890658713,1.1971565390565337
0.026262362993320056,1.7429641429546425,1.2363446752826759
0.026873115621071687,1.7411180804744988,1.2751779609615757
0.027483868248823314,1.7392808082085693,1.313617401408758
0.028094620876574942,1.7374535278808334,1.3516264123563728
0.028705373504326573,1.735637338820926,1.389170809199263
0.0293161261320782,1.7338332407830754,1.42621878860404
0.029926878759829835,1.7320421370778432,1.4627409031609317
0.030537631387581463,1.7302648379763117,1.4987100297387208
0.03114838401533309,1.728502064347615,1.5341013321820083
0.03175913664308472,1.7267544514920516,1.5688922189615462
0.03236988927083635,1.725022553133564,1.6030622963598522
0.03298064189858798,1.7233068455372782,1.6365933177432106
0.03359139452633961,1.721607731719383,1.669469129436017
0.034202147154091235,1.7199255457188096,1.701675613681076
0.03481289978184286,1.7182605569020217,1.7332006291331108
0.0354236524095945,1.7166129742742984,1.7640339492980985
0.036034405037346125,1.7149829507729935,1.7941671992971095
0.03664515766509775,1.7133705875202314,1.823593791298433
0.03725591029284938,1.7117759380146,1.8523088589298495
0.037866662920601014,1.7101990122433306,1.8803091909510745
0.038477415548352635,1.7086397806984837,1.9075931644368658
0.03908816817610427,1.7070981782824588,1.9341606776927138
0.039698920803855904,1.705574108090033,1.9600130830995133
0.040309673431607525,1.7040674450558195,1.9851531200587818
0.04092042605935916,1.7025780394577446,2.0095848481880094
0.04153117868711079,1.701105720268684,2.0333135808957863
0.04214193131486242,1.6996502983498372,2.0563458194477575
0.04275268394261404,1.6982115694809032,2.078689187618775
0.04336343657036568,1.6967893172233028,2.100352367012383
0.043974189198117304,1.6953833156139464,2.121345033115794
0.04458494182586893,1.6939933316881703,2.1416777921493524
0.04519569445362056,1.6926191278314038,2.1613621187589414
0.045806447081372194,1.6912604639601336,2.1804102945934978
0.04641719970912382,1.68991709953352,2.1988353478038514
0.04702795233687545,1.688588795397795,2.2166509934935026
0.047638704964627084,1.6872753154662774,2.2338715751500784
0.048249457592378704,1.68597642823837,2.2505120070812565
0.04886021022013034,1.6846919081615332,2.266587717880462
0.049470962847881966,1.6834215368406356,2.28211459494357
0.050081715475633594,1.6821651040994963,2.297108930060493
0.05069246810338522,1.680922408899804,2.3115873661035202
0.051303220731136856,1.6796932601228707,2.3255668448366738
0.05191397335888848,1.6784774772199276,2.3390645558703684
0.05252472598664011,1.6772748907368606,2.35209788678734
0.053135478614391746,1.676085342719461,2.364684374467185
0.05374623124214337,1.6749086870053504,2.376841657638289
0.054356983869895,1.6737447894088215,2.388587430686619
0.05496773649764663,1.6725935278049124,2.3999393987538706
0.05557848912539826,1.6714547921190093,2.4109152341564006
0.056189241753149884,1.670328484228281,2.421532534159353
0.05679999438090152,1.6692145177811897,2.431808780140231
0.057410747008653146,1.6681128179413125,2.441761298176074
0.05802149963640477,1.6670233210615484,2.4514072210907467
0.0586322522641564,1.6659459742947795,2.4607634519959327
0.059243004891908035,1.664880735146847,2.46984662936198
0.05985375751965967,1.6638275709776622,2.478673093651237
0.06046451014741129,1.662786458456069,2.4872588555486073
0.061075262775162925,1.6617573829739194,2.4956195658194296
0.06168601540291455,1.6607403380247332,2.5037704868260215
0.06229676803066618,1.6597353245520499,2.5117264657307636
0.0629075206584178,1.658742350272449,2.519501909411577
0.06351827328616944,1.6577614289780416,2.527110761113748
0.06412902591392107,1.6567925798230039,2.534566478858574
0.0647397785416727,1.6558358265985715,2.541882015627077
0.06535053116942433,1.6548911970006797,2.54906980133316
0.06596128379717596,1.6539587218942726,2.556141726597884
0.0665720364249276,1.6530384345780442,2.5631091283321004
0.06718278905267921,1.6521303700532612,2.5699827771325543
0.06779354168043085,1.651234564300002,2.576772866490534
0.06840429430818247,1.6503510535640382,2.5834890038103953
0.06901504693593409,1.649479873657344,2.590140203229972
0.06962579956368573,1.6486210592749881,2.5967348802308927
0.07023655219143736,1.647774643331045,2.603280848024244
0.070847304819189,1.646940656315858,2.6097853156900146
0.07145805744694061,1.646119125676894,2.6162548880481373
0.07206881007469225,1.6453100752251741,2.62269556723184
0.07267956270244387,1.6445135245690874,2.629112755932291
0.0732903153301955,1.6437294885772378,2.635511262278524
0.07390106795794714,1.6429579768717606,2.641895306311859
0.07451182058569876,1.642198993353389,2.648268528013305
0.0751225732134504,1.6414525357593674,2.6546339968349986
0.07573332584120203,1.6407185952551568,2.6609942226862935
0.07634407846895366,1.6399971560606954,2.6673511683200073
0.07695483109670527,1.6392881951118317,2.6737062630617605
0.0775655837244569,1.6385916817574033,2.680060417822707
0.07817633635220854,1.6379075774922682,2.6864140413320743
0.07878708897996017,1.637235835726463,2.69276705752405
0.07939784160771181,1.636576401590531,2.6991189240110294
0.08000859423546343,1.6359292117769355,2.705468651572981
0.08061934686321505,1.6352941944173227,2.711814824590013
0.08123009949096668,1.6346712689953091,2.7181556223439753
0.08184085211871832,1.634060346294348,2.724488841113917
0.08245160474646994,1.6334613283801014,2.73081191698726
0.08306235737422157,1.6328741086166627,2.737121949308119
0.08367311000197321,1.6322985717158687,2.74341572468456
0.08428386262972484,1.6317345938188557,2.7496897414734383
0.08489461525747646,1.6311820426089094,2.7559402346626936
0.08550536788522808,1.6306407774546017,2.762163201070614
0.08611612051297972,1.6301106495821192,2.768354424780439
0.08672687314073135,1.629591502275619,2.7745095027309192
0.08733762576848299,1.6290831711043792,2.780623870381069
0.08794837839623461,1.6285854841754817,2.78669282737112
0.08855913102398623,1.6280982624106624,2.7927115631004207
0.08916988365173786,1.627621319845954,2.7986751821445894
0.0897806362794895,1.6271544639527042,2.804578729436504
0.09039138890724112,1.6266974959784868,2.8104172151361113
0.09100214153499275,1.626250211306417,2.81618563911645
0.09161289416274439,1.625812399831347,2.821879014994953
0.09222364679049602,1.6253838463513963,2.8274923936421636
0.09283439941824764,1.6249643309732447,2.833020886099936
0.09344515204599926,1.6245536295296283,2.8384596858476554
0.0940559046737509,1.6241515140074472,2.8438040903536517
0.09466665730150253,1.6237577529848972,2.849049521854555
0.09527740992925417,1.6233721120760571,2.854191547307645
0.09588816255700579,1.6229943543813394,2.8592258974638063
0.09649891518475741,1.62262424094226,2.8641484850132195
0.09710966781250904,1.6222615311989603,2.868955421758258
0.09772042044026068,1.6219059834489713,2.873643034772274
0.09833117306801231,1.6215573553057012,2.878207881506681
0.09894192569576393,1.621215404155185,2.8826467638121387
0.09955267832351557,1.6208798876096466,2.8869567408436665
0.10016343095126719,1.6205505639564628,2.8911351408238186
0.10077418357901882,1.6202271926011735,2.895179571641263
0.10138493620677044,1.6199095345032009,2.899087930266762
0.10199568883452208,1.6195973526030123,2.902858410972926
0.10260644146227371,1.619290412239487,2.9064895123468326
0.10321719409002535,1.618988481556321,2.909980043090199
0.10382794671777695,1.6186913318963412,2.9133291266048063
0.10443869934552859,1.6183987381826728,2.916536204366135
0.10504945197328022,1.6181104792857508,2.919601038090255
0.10566020460103186,1.617826338375247,2.9225237107049113
0.10627095722878349,1.617546103256011,2.9253046261384616
0.10688170985653511,1.6172695666872596,2.9279445079450146
0.10749246248428675,1.616996526684219,2.9304443967864127
0.10810321511203837,1.616726786801592,2.9328056467968744
0.10871396773979,1.6164601563982202,2.935029920859271
0.10932472036754162,1.6161964508824191,2.9371191848237697
0.10993547299529326,1.6159354919375244,2.9390757007058155
0.11054622562304489,1.6156771077272574,2.9409020189003465
0.11115697825079653,1.6154211330805959,2.942600969453771
0.11176773087854816,1.6151674096559054,2.9441756524388722
0.11237848350629977,1.6149157860841516,2.9456294274771904
0.1129892361340514,1.6146661180910988,2.9469659024593162
0.11359998876180304,1.6144182685984598,2.948188921513827
0.11421074138955467,1.6141721078040272,2.9493025522772096
0.11482149401730629,1.6139275132408994,2.950311072520549
0.11543224664505793,1.6136843698159704,2.951218956188525
0.11604299927280955,1.613442569827916,2.952030858909298
0.11665375190056118,1.6132020129649747,2.952751603033003
0.1172645045283128,1.6129626062828883,2.9533861622592688
0.11787525715606444,1.6127242641634163,2.953939645913757
0.11848600978381607,1.6124869082538968,2.954417282934792
0.1190967624115677,1.6122504673883873,2.954824405630771
0.11970751503931934,1.612014877490964,2.955166433269534
0.12031826766707095,1.611780081461794,2.955448855559942
0.12092902029482258,1.6115460290466785,2.9556772160870284
0.12153977292257422,1.6113126766907528,2.9558570957587396
0.12215052555032585,1.6110799873771173,2.9559940963250013
0.12276127817807747,1.6108479304511767,2.9560938240247667
0.1233720308058291,1.610616481431514,2.956161873418892
0.12398278343358073,1.6103856218081518,2.9562038114637055
0.12459353606133236,1.6101553388290633,2.9562251618770565
0.125204288689084,1.6099256252758478,2.9562313898510624
0.1258150413168356,1.609696479229479,2.956227887158352
0.12642579394458725,1.609467903827049,2.956219957701021
0.12703654657233887,1.6092399070104664,2.9562128035467765
0.12764729920009052,1.6090125012680498,2.9562115114949243
0.12825805182784214,1.6087857033699724,2.956221040213197
0.12886880445559376,1.6085595340985153,2.9562462079814456
0.1294795570833454,1.6083340179740904,2.9562916810789472
0.13009030971109703,1.6081091829779766,2.9563619628462847
0.13070106233884865,1.607885060272707,2.9564613834502613
0.13131181496660027,1.6076616839210538,2.95659409038037
0.13192256759435192,1.6074390906045068,2.9567640396969996
0.13253332022210354,1.6072173193421628,2.9569749880540233
0.1331440728498552,1.6069964112108899,2.9572304855110336
0.13375482547760678,1.6067764090676373,2.9575338691504034
0.13436557810535843,1.6065573572747158,2.9578882575091168
0.13497633073311005,1.6063393014288527,2.9582965458335138
0.1355870833608617,1.6061222880948038,2.9587614021616955
0.13619783598861332,1.6059063645442602,2.9592852642348526
0.13680858861636494,1.6056915785007682,2.95987033723621
0.13741934124411656,1.6054779778913335,2.960518592353858
0.13803009387186818,1.6052656106053544,2.961231766158769
0.13864084649961983,1.6050545242614844,2.9620113607898766
0.13925159912737145,1.6048447659829865,2.9628586449311616
0.1398623517551231,1.6046363821821061,2.9637746555670645
0.14047310438287472,1.6044294183539478,2.964760200497672
0.14108385701062634,1.604223918880283,2.965815861591979
0.141694609638378,1.6040199268437063,2.966941998758415
0.1423053622661296,1.6038174838524801,2.968138754605052
0.14291611489388123,1.603616629876392,2.969406059764692
0.14352686752163288,1.6034174030938826,2.9707436388536395
0.1441376201493845,1.6032198397506823,2.972151017033894
0.14474837277713615,1.6030239740301293,2.9736275271461396
0.14535912540488774,1.6028298379353183,2.9751723173785405
0.14596987803263936,1.6026374611831729,2.976784359435977
0.146580630660391,1.602446871110494,2.978462457171995
0.14719138328814263,1.6022580925920145,2.98020525564621
0.14780213591589428,1.6020711479704155,2.982011250566717
0.1484128885436459,1.6018860569982558,2.9838787980786723
0.14902364117139752,1.6017028367917037,2.9858061248569885
0.14963439379914917,1.6015215017959337,2.987791338462948
0.1502451464269008,1.601342063762012,2.98983243792246
0.15085589905465244,1.6011645317350636,2.9919273244846245
0.15146665168240406,1.600988912053467,2.9940738125177373
0.15207740431015568,1.6008152083588196,2.99626964050208
0.15268815693790733,1.60064342161635,2.998512482076776
0.15329890956565892,1.600473550145449,3.000799957100297
0.15390966219341054,1.6003055896599672,3.003129642683003
0.1545204148211622,1.600139533317883,3.00549908415269
0.1551311674489138,1.5999753717799279,3.0079058059123644
0.15574192007666546,1.5998130932767591,3.010347322153769
0.15635267270441708,1.5996526836841982,3.0128211473867874
0.1569634253321687,1.5994941266060945,3.0153248067510843
0.15757417795992035,1.5993374034643137,3.017855846072568
0.15818493058767197,1.5991824935953556,3.0204118416334014
0.15879568321542362,1.599029374353094,3.022990409620792
0.15940643584317524,1.5988780212171132,3.0255892152267414
0.16001718847092686,1.5987284079061173,3.0282059813674613
0.1606279410986785,1.5985805064958674,3.0308384969965245
0.1612386937264301,1.5984342875411177,3.033484624986113
0.16184944635418172,1.598289720201001,3.036142309552447
0.16246019898193337,1.5981467723673173,3.0388095832043356
0.163070951609685,1.5980054107951942,3.041484573195002
0.16368170423743664,1.5978656012355625,3.0441655074591925
0.16429245686518826,1.5977273085689256,3.046850720020679
0.16490320949293988,1.5975904969398897,3.049538655856989
0.16551396212069153,1.5974551298919248,3.05222787520847
0.16612471474844315,1.5973211705018584,3.0549170573249773
0.1667354673761948,1.5971885815135882,3.0576050036411204
0.16734622000394642,1.5970573254705311,3.0602906403764374
0.16795697263169804,1.5969273648463318,3.062973020556984
0.16856772525944969,1.5967986621733705,3.0656513254592346
0.16917847788720128,1.596671180168627,3.0683248654759545
0.16978923051495293,1.596544881856469,3.0709930804089844
0.17039998314270455,1.5964197306879688,3.073655539194724
0.17101073577045617,1.5962956906563455,3.076311939069345
0.17162148839820782,1.5961727264081778,3.0789621041840194
0.17223224102595944,1.596050803350032,3.0816059836813117
0.17284299365371106,1.5959298877501862,3.0842436492468646
0.1734537462814627,1.5958099468351505,3.086875292151395
0.17406449890921433,1.5956909488807005,3.0895012197994656
0.17467525153696598,1.5955728632971768,3.0921218518047295
0.1752860041647176,1.5954556607088177,3.0947377156110263
0.17589675679246922,1.5953393130269258,3.097349441681486
0.17650750942022086,1.5952237935166838,3.099957758278953
0.17711826204797246,1.5951090768574714,3.1025634858611086
0.1777290146757241,1.594995139196556,3.105167531117775
0.17833976730347573,1.59488195819605,3.107770880675066
0.17895051993122735,1.5947695130730644,3.110374594495777
0.179561272558979,1.594657784633007,3.112979799004056
0.18017202518673062,1.594546755295994,3.1155876799634457
0.18078277781448224,1.5944364091163798,3.118199475139126
0.18139353044223389,1.5943267317954297,3.120816466774624
0.1820042830699855,1.594217710687176,3.1234399739144387
0.18261503569773715,1.5941093347975388,3.126071344603798
0.18322578832548878,1.5940015947767987,3.1287119479977235
0.1838365409532404,1.5938944829055435,3.1313631664109867
0.18444729358099204,1.593787993074223,3.1340263873409695
0.18505804620874364,1.593682120756479,3.1367029954949093
0.18566879883649529,1.5935768629764218,3.13939436485422
0.1862795514642469,1.593472218270062,3.1421018508053744
0.18689030409199853,1.593368186641105,3.1448267823699276
0.18750105671975018,1.5932647695113562,3.1475704545628838
0.1881118093475018,1.5931619696659787,3.1503341209092985
0.18872256197525342,1.5930597911938713,3.1531189861482707
0.18933331460300507,1.592958239423456,3.155926199152405
0.18994406723075669,1.5928573208541614,3.158756846088838
0.19055481985850833,1.5927570430839124,3.161611943850103
0.19116557248625995,1.5926574147329426,3.1644924337771934
0.19177632511401158,1.5925584453642596,3.1673991757006346
0.19238707774176322,1.5924601454010916,3.170332942320844
0.19299783036951482,1.5923625260416647,3.173294413949536
0.19360858299726647,1.5922655991716597,3.176284173631915
0.19421933562501809,1.5921693772746934,3.1793027026669525
0.1948300882527697,1.5920738733411914,3.182350376543797
0.19544084088052135,1.5919791007760042,3.1854274613082594
0.19605159350827298,1.5918850733051273,3.18853411037334
0.19666234613602462,1.5917918048818889,3.1916703617852726
0.19727309876377624,1.5916993095929552,3.1948361359552306
0.19788385139152787,1.5916076015645169,3.1980312338645946
0.1984946040192795,1.591516694868996,3.201255335751156
0.19910535664703113,1.5914266034326336,3.204508000279126
0.19971610927478275,1.591337340944283,3.207788664197837
0.20032686190253438,1.5912489207657479,3.211096642488334
0.200937614530286,1.5911613558439885,3.2144311289988368
0.20154836715803764,1.5910746586255051,3.2177911975643494
0.20215911978578927,1.5909888409732043,3.2211758036082347
0.20276987241354089,1.5909039140860397,3.2245837862176487
0.20338062504129253,1.590819888421703,3.2280138706864534
0.20399137766904415,1.5907367736226334,3.2314646715149182
0.2046021302967958,1.590654578445594,3.234934695855514
0.20521288292454742,1.590573310695051,3.2384223473916904
0.20582363555229904,1.5904929771605791,3.2419259306349644
0.2064343881800507,1.5904135835584952,3.2454436556251576
0.2070451408078023,1.5903351344779009,3.2489736430148604
0.2076558934355539,1.5902576333313179,3.2525139295211325
0.20826664606330555,1.590181082310053,3.2560624737228063
0.20887739869105718,1.5901054823444365,3.2596171621826047
0.20948815131880882,1.590030833069039,3.2631758158721067
0.21009890394656044,1.5899571327929762,3.266736196875106
0.21070965657431207,1.5898843784753633,3.270296015345361
0.2113204092020637,1.589812565705989,3.2738529366932214
0.21193116182981533,1.5897416886912374,3.2774045889751697
0.21254191445756698,1.5896717402452905,3.280948570459007
