frequency,refractiveIndex,absorption
0.0006107526277516292,3.0150452189857573,0.006749522220618447
0.0012215052555032584,3.013112823064651,0.02694809752628421
0.0018322578832548875,3.0099095466584442,0.06044687849260499
0.002443010511006517,3.0054610213460724,0.10700148702220998
0.003053763138758146,2.9998022671084135,0.16627737947439822
0.003664515766509775,2.9929768797514282,0.23785700122626183
0.004275268394261404,2.985036055043848,0.3212484091912059
0.004886021022013034,2.976037493317755,0.41589499423282683
0.005496773649764663,2.966044230444799,0.5211859150588126
0.006107526277516292,2.955123440204436,0.6364668599791402
0.006718278905267922,2.94334524953871,0.7610507795117626
0.00732903153301955,2.9307816026659754,0.8942282763016358
0.00793978416077118,2.9175052032163893,1.0352773935117094
0.008550536788522809,2.9035885561602752,1.1834726030705818
0.009161289416274438,2.889103123949728,1.3380928558399439
0.009772042044026067,2.8741186044766596,1.4984286128064341
0.010382794671777697,2.8587023325102585,1.6637878268897077
0.010993547299529326,2.8429188014070887,1.8335008871446088
0.011604299927280955,2.826829298154182,2.006924570315533
0.012215052555032585,2.810491642172683,2.1834450689989455
0.012825805182784214,2.793960016670811,2.362480181806989
0.013436557810535843,2.7772848805414765,2.5434807599892215
0.014047310438287471,2.760512948686313,2.7259315082249174
0.0146580630660391,2.743687229048967,2.909351236033927
0.015268815693790731,2.726847105405215,3.093292651678987
0.01587956832154236,2.7100284559543093,3.277341783611987
0.01649032094929399,2.6932637988782555,3.461117106342987
0.017101073577045618,2.6765824571995123,3.6442684387937803
0.01771182620479725,2.660010736411581,3.8264756742780204
0.018322578832548876,2.6435721094382423,4.007447392615209
0.018933331460300507,2.6272874044690706,4.186919396799471
0.019544084088052135,2.61117499210617,4.3646532092628165
0.020154836715803762,2.595250969034873,4.5404345561803945
0.020765589343555393,2.5795293361000358,4.714071862480957
0.02137634197130702,2.5640221692354244,4.885394775233269
0.021987094599058652,2.5487397821647093,5.0542527288308525
0.02259784722681028,2.5336908801785696,5.2205135618324165
0.02320859985456191,2.5188827046035587,5.384062192361719
0.023819352482313542,2.5043211678251374,5.544799356557577
0.02443010511006517,2.4900109789187588,5.702640412617948
0.025040857737816797,2.475955760088627,5.857514211437844
0.025651610365568428,2.4621581542209623,6.009362033633845
0.026262362993320056,2.448619923934724,6.1581365918256745
0.026873115621071687,2.4353420425636263,6.303801096357553
0.027483868248823314,2.4223247775339183,6.446328382145963
0.028094620876574942,2.4095677666173443,6.585700094000733
0.028705373504326573,2.397070087541413,6.721905927551686
0.0293161261320782,2.3848303214325144,6.85494292279625
0.029926878759829835,2.3728466105540336,6.984814807244191
0.030537631387581463,2.3611167107833695,7.1115313856557645
0.03114838401533309,2.3496380392501344,7.235107973432889
0.03175913664308472,2.3384077175341895,7.355564870819541
0.03236988927083635,2.3274226107973366,7.472926875186415
0.03298064189858798,2.316679363197336,7.58722282880822
0.03359139452633961,2.3061744299079265,7.698485199684744
0.034202147154091235,2.295904106044146,7.806749693103237
0.03481289978184286,2.285864552768728,7.912054891786289
0.0354236524095945,2.276051820832992,8.014441922614207
0.036034405037346125,2.2664618717844647,8.11395414805037
0.03664515766509775,2.2570905970535864,8.210636880532704
0.03725591029284938,2.2479338351134284,8.304537118221468
0.037866662920601014,2.238987386889058,8.395703300613343
0.038477415548352635,2.2302470295774026,8.484185082644359
0.03908816817610427,2.2217085290238403,8.570033126007923
0.039698920803855904,2.2133676507883435,8.653298906511678
0.040309673431607525,2.2052201700217644,8.734034536384822
0.04092042605935916,2.197261880261687,8.812292600531269
0.04153117868711079,2.1894886012471093,8.888126005796703
0.04214193131486242,2.1818961858419708,8.961587842389068
0.04275268394261404,2.17448052614917,9.0327312566523
0.04336343657036568,2.167237558889159,9.10160933445222
0.043974189198117304,2.160163270110295,9.168274994484689
0.04458494182586893,2.1532536992919993,9.232780890864333
0.04519569445362056,2.146504942896093,9.29517932439481
0.045806447081372194,2.139913157416716,9.35552216196236
0.04641719970912382,2.133474561974618,9.413860763529375
0.04702795233687545,2.1271854404975223,9.470245916238307
0.047638704964627084,2.1210421435245617,9.52472777516713
0.048249457592378704,2.115041089669435,9.577355810304356
0.04886021022013034,2.1091787667739093,9.62817875933802
0.049470962847881966,2.103451732780558,9.677244585876831
0.050081715475633594,2.0978566163511903,9.724600442743062
0.05069246810338522,2.092390117255148,9.770292639997814
0.051303220731136856,2.0870490065496465,9.814366617377853
0.05191397335888848,2.0818301265725188,9.856866920841318
0.05252472598664011,2.076730390765988,9.89783718293595
0.053135478614391746,2.0717467833486696,9.937320106720106
0.05374623124214337,2.0668763588515002,9.97535745297969
0.054356983869895,2.0621162415321437,10.011990030500822
0.05496773649764663,2.057463624681154,10.047257689168879
0.05557848912539826,2.052915769832198,10.081199315678555
0.056189241753149884,2.0484700058876086,10.113852831651446
0.05679999438090152,2.044123728169656,10.1452551939681
0.057410747008653146,2.039874397407098,10.175442397134036
0.05802149963640477,2.035719538665799,10.204449477507765
0.0586322522641564,2.0316567402314876,10.232310519230413
0.059243004891908035,2.0276836524520916,10.259058661704747
0.05985375751965967,2.0237979865464406,10.284726108481264
0.06046451014741129,2.0199975133855985,10.309344137417305
0.061075262775162925,2.0162800622525334,10.33294311198351
0.06168601540291455,2.0126435195853545,10.355552493599589
0.06229676803066618,2.009085827708893,10.37720085488936
0.0629075206584178,2.0056049835589675,10.397915893751957
0.06351827328616944,2.002199037403291,10.41772444815251
0.06412902591392107,1.9988660915626038,10.436652511543096
0.0647397785416727,1.9956042991352652,10.454725248829677
0.06535053116942433,1.9924118627282488,10.471967012808307
0.06596128379717596,1.9892870331971342,10.488401360997358
0.0665720364249276,1.9862281083974875,10.504051072800141
0.06718278905267921,1.9832334319496812,10.518938166935278
0.06779354168043085,1.9803013920190564,10.533083919078468
0.06840429430818247,1.9774304201130184,10.546508879662445
0.06901504693593409,1.974618989896552,10.559232891788293
0.06962579956368573,1.9718656160273516,10.571275109202066
0.07023655219143736,1.9691688530116782,10.582654014297981
0.070847304819189,1.9665272940818315,10.593387436110138
0.07145805744694061,1.9639395700960256,10.603492568260243
0.07206881007469225,1.9614043484612724,10.61298598683016
0.07267956270244387,1.9589203320798145,10.621883668132384
0.0732903153301955,1.9564862583194689,10.630201006353543
0.07390106795794714,1.9541008980082069,10.637952831049246
0.07451182058569876,1.951763054453143,10.645153424469507
0.0751225732134504,1.9494715624840733,10.65181653869904
0.07573332584120203,1.947225287521583,10.657955412595264
0.07634407846895366,1.9450231246697096,10.66358278851181
0.07695483109670527,1.942863997833062,10.668710928795054
0.0775655837244569,1.9407468588582575,10.673351632044227
0.07817633635220854,1.9386706866994836,10.677516249126022
0.07878708897996017,1.9366344866079392,10.681215698936782
0.07939784160771181,1.9346372893449015,10.68446048390673
0.08000859423546343,1.9326781504180863,10.687260705240321
0.08061934686321505,1.9307561493409944,10.689626077890647
0.08123009949096668,1.9288703889148588,10.69156594526344
0.08184085211871832,1.927019994532835,10.69308929364999
0.08245160474646994,1.92520411350602,10.694204766387177
0.08306235737422157,1.9234219144109004,10.69492067774389
0.08367311000197321,1.9216725864577953,10.69524502653452
0.08428386262972484,1.919955338879874,10.695185509459707
0.08489461525747646,1.9182694003422904,10.6947495341748
0.08550536788522808,1.9166140183710167,10.69394423208861
0.08611612051297972,1.914988458800892,10.692776470892763
0.08672687314073135,1.9133920052424747,10.691252866824607
0.08733762576848299,1.9118239585672137,10.689379796664927
0.08794837839623461,1.9102836364105125,10.687163409473104
0.08855913102398623,1.9087703726922287,10.684609638062238
0.08916988365173786,1.9072835171541587,10.681724210215846
0.0897806362794895,1.9058224349140767,10.678512659649186
0.09039138890724112,1.9043865060358778,10.674980336717327
0.09100214153499275,1.902975125115398,10.671132418872055
0.09161289416274439,1.901587700881479,10.66697392087
0.09222364679049602,1.900223655811852,10.662509704734184
0.09283439941824764,1.8988824257634231,10.657744489470575
0.09344515204599926,1.8975634596165447,10.652682860541818
0.0940559046737509,1.896266218932861,10.647329279099528
0.09466665730150253,1.8949901776263331,10.641688090976809
0.09527740992925417,1.8937348216470342,10.635763535442095
0.09588816255700579,1.8924996486773318,10.629559753715698
0.09649891518475741,1.8912841678400658,10.623080797249658
0.09710966781250904,1.890087899418338,10.616330635771531
0.09772042044026068,1.8889103745865459,10.609313165093337
0.09833117306801231,1.8877511351522756,10.602032214684769
0.09894192569576393,1.8866097333087022,10.594491555012283
0.09955267832351557,1.8854857313971243,10.586694904642515
0.10016343095126719,1.8843787016792826,10.578645937111142
0.10077418357901882,1.8832882261191108,10.570348287555982
0.10138493620677044,1.8822138961735655,10.56180555911392
0.10199568883452208,1.8811553125922014,10.553021329081824
0.10260644146227371,1.8801120852251472,10.543999154839414
0.10321719409002535,1.8790838328391493,10.534742579534301
0.10382794671777695,1.8780701829413555,10.525255137527772
0.10443869934552859,1.8770707716105146,10.51554035960071
0.10504945197328022,1.8760852433352697,10.505601777917965
0.10566020460103186,1.875113250859228,10.49544293075103
0.10627095722878349,1.8741544550325,10.485067366957303
0.10688170985653511,1.8732085246693904,10.474478650214934
0.10749246248428675,1.8722751364119579,10.463680363012898
0.10810321511203837,1.8713539745991208,10.452676110394414
0.10871396773979,1.870444731141035,10.44146952345377
0.10932472036754162,1.869547105398447,10.430064262585196
0.10993547299529326,1.8686608040667365,10.41846402048319
0.11054622562304489,1.8677855410643813,10.406672524894178
0.11115697825079653,1.8669210374255496,10.3946935411185
0.11176773087854816,1.8660670211965802,10.38253087426338
0.11237848350629977,1.865223227336061,10.370188371245732
0.1129892361340514,1.864389397618267,10.357669922546117
0.11359998876180304,1.8635652805396952,10.34497946371347
0.11421074138955467,1.8627506312284592,10.332120976621518
0.11482149401730629,1.8619452113562975,10.319098490477629
0.11543224664505793,1.8611487890529648,10.305916082585178
0.11604299927280955,1.8603611388227799,10.292577878860849
0.11665375190056118,1.8595820414631088,10.279088054108579
0.1172645045283128,1.8588112839845654,10.265450832051446
0.11787525715606444,1.8580486595327277,10.251670485124578
0.11848600978381607,1.8572939673111675,10.23775133403072
0.1190967624115677,1.8565470125055905,10.223697747061609
0.11970751503931934,1.8558076062089148,10.209514139187933
0.12031826766707095,1.8550755653470958,10.195204970921589
0.12092902029482258,1.854350712605525,10.180774746953224
0.12153977292257422,1.8536328763558443,10.166228014569505
0.12215052555032585,1.8529218905830056,10.151569361854069
0.12276127817807747,1.8522175948124355,10.13680341567698
0.1233720308058291,1.8515198340371468,10.12193483947655
0.12398278343358073,1.8508284586446693,10.10696833083995
0.12459353606133236,1.850143324343665,10.091908618887068
0.125204288689084,1.8494642920901063,10.076760461463401
0.1258150413168356,1.8487912280128955,10.061528642148252
0.12642579394458725,1.8481240033388189,10.046217967084056
0.12703654657233887,1.8474624943167381,10.030833261633903
0.12764729920009052,1.8468065821409116,10.015379366873235
0.12825805182784214,1.8461561528733699,9.999861135923561
0.12886880445559376,1.8455110973652524,9.984283430135203
0.1294795570833454,1.8448713111770363,9.968651115126121
0.13009030971109703,1.8442366944975905,9.952969056685912
0.13070106233884865,1.8436071520619859,9.937242116551285
0.13131181496660027,1.8429825930680168,9.92147514806345
0.13192256759435192,1.8423629310913734,9.905672991713535
0.13253332022210354,1.8417480839994365,9.889840470587405
0.1331440728498552,1.8411379738636457,9.873982385716424
0.13375482547760678,1.840532526870423,9.858103511345268
0.13436557810535843,1.8399316732306208,9.84220859012502
0.13497633073311005,1.839335347087484,9.826302328242038
0.1355870833608617,1.8387434864231096,9.810389390491487
0.13619783598861332,1.8381560329634081,9.794474395306423
0.13680858861636494,1.8375729320815577,9.778561909752085
0.13741934124411656,1.8369941326999717,9.76265644449583
0.13803009387186818,1.8364195871907825,9.746762448763368
0.13864084649961983,1.8358492512748708,9.730884305291942
0.13925159912737145,1.8352830839194596,9.715026325290841
0.1398623517551231,1.8347210472343107,9.699192743420939
0.14047310438287472,1.8341631063665604,9.683387712803478
0.14108385701062634,1.8336092293942352,9.667615300069874
0.141694609638378,1.8330593872185046,9.651879480463261
0.1423053622661296,1.8325135534547183,9.636184133003509
0.14291611489388123,1.8319717043222992,9.620533035726575
0.14352686752163288,1.831433818533551,9.60492986101029
0.1441376201493845,1.8308998771814613,9.589378170996959
0.14474837277713615,1.8303698636265742,9.573881413125216
0.14535912540488774,1.8298437633830191,9.558442915781841
0.14596987803263936,1.8293215640037879,9.543065884085316
0.146580630660391,1.8288032549653526,9.52775339581156
0.14719138328814263,1.8282888275517295,9.512508397474512
0.14780213591589428,1.8277782747380928,9.497333700570938
0.1484128885436459,1.8272715910740533,9.482231978001783
0.14902364117139752,1.8267687725667126,9.467205760679942
0.14963439379914917,1.8262698165636266,9.452257434335403
0.1502451464269008,1.8257747216357911,9.437389236528025
0.15085589905465244,1.825283487460794,9.422603253878135
0.15146665168240406,1.8247961147062588,9.407901419524652
0.15207740431015568,1.8243126049137297,9.393285510819938
0.15268815693790733,1.8238329603831338,9.378757147271376
0.15329890956565892,1.8233571840579736,9.364317788737429
0.15390966219341054,1.8228852794113983,9.349968733887184
0.1545204148211622,1.8224172503333114,9.335711118931075
0.1551311674489138,1.821953101018666,9.321545916630182
0.15574192007666546,1.8214928358571154,9.307473935591258
0.15635267270441708,1.8210364593241708,9.293495819853225
0.1569634253321687,1.8205839758740414,9.27961204877206
0.15757417795992035,1.8201353898343076,9.265822937207965
0.15818493058767197,1.8196907053026072,9.252128636020444
0.15879568321542362,1.8192499260454902,9.238529132874323
0.15940643584317524,1.81881305539961,9.225024253360717
0.16001718847092686,1.8183800961754222,9.211613662434736
0.1606279410986785,1.817951050563547,9.198296866171885
0.1612386937264301,1.8175259200439644,9.185073213844262
0.16184944635418172,1.8171047052981992,9.171941900316428
0.16246019898193337,1.8166874061246565,9.15890196876036
0.163070951609685,1.816274021357262,9.145952313688033
0.16368170423743664,1.8158645487875535,9.133091684299199
0.16429245686518826,1.815458985090385,9.12031868814113
0.16490320949293988,1.815057325753365,9.107631795076108
0.16551396212069153,1.8146595650101864,9.095029341551914
0.16612471474844315,1.8142656957779641,9.08250953516916
0.1667354673761948,1.8138757095987144,9.070070459538666
0.16734622000394642,1.8134895965850901,9.057710079421609
0.16795697263169804,1.8131073453704845,9.045426246143133
0.16856772525944969,1.8127289430635996,9.033216703270622
0.16917847788720128,1.8123543752075848,9.021079092546119
0.16978923051495293,1.8119836257438193,9.009010960061332
0.17039998314270455,1.811616676980422,8.997009762663787
0.17101073577045617,1.8112535095655522,8.985072874580819
0.17162148839820782,1.8108941024655534,8.973197594248115
0.17223224102595944,1.8105384329479937,8.96138115132767
0.17284299365371106,1.810186476569629,8.949620713901092
0.1734537462814627,1.8098382071693178,8.937913395821665
0.17406449890921433,1.809493596865895,8.9262562642085
0.17467525153696598,1.8091526160610092,8.914646347066105
0.1752860041647176,1.8088152334469065,8.903080641011591
0.17589675679246922,1.8084814160191431,8.891556119090776
0.17650750942022086,1.8081511290941823,8.880069738665117
0.17711826204797246,1.8078243363318367,8.868618449349468
0.1777290146757241,1.807500999762486,8.85719920098185
0.17833976730347573,1.807181079819006,8.845808951604983
0.17895051993122735,1.8068645353733133,8.834444675439254
0.179561272558979,1.8065513237774404,8.823103370827043
0.18017202518673062,1.8062414009090197,8.811782068127892
0.18078277781448224,1.805934721221065,8.800477837543596
0.18139353044223389,1.8056312377959098,8.789187796853046
0.1820042830699855,1.805330902403165,8.777909119035687
0.18261503569773715,1.8050336655615353,8.766639039763854
0.18322578832548878,1.804739476604333,8.755374864742999
0.1838365409532404,1.8044482837485096,8.744113976880465
0.18444729358099204,1.8041600341670203,8.732853843262088
0.18505804620874364,1.8038746740643297,8.72159202191877
0.18566879883649529,1.803592148754847,8.710326168362418
0.1862795514642469,1.803312402744088,8.699054041874081
0.18689030409199853,1.8030353798123366,8.687773511526299
0.18750105671975018,1.80276102310058,8.676482561921548
0.1881118093475018,1.8024892751984876,8.665179298631271
0.18872256197525342,1.8022200782341906,8.653861953319442
0.18933331460300507,1.8019533739656195,8.642528888535454
0.18994406723075669,1.8016891038731475,8.63117860216199
0.19055481985850833,1.8014272092532941,8.619809731505624
0.19116557248625995,1.801167631313225,8.608421057016612
0.19177632511401158,1.8009103112657947,8.597011505627593
0.19238707774176322,1.8006551904248738,8.585580153700112
0.19299783036951482,1.8004022103006956,8.574126229570867
0.19360858299726647,1.8001513126949686,8.562649115688131
0.19421933562501809,1.7999024397954888,8.55114835033299
0.1948300882527697,1.7996555342700002,8.539623628918193
0.19544084088052135,1.799410539359044,8.528074804861323
0.19605159350827298,1.7991673989675434,8.516501890027865
0.19666234613602462,1.7989260577548811,8.504905054742546
0.19727309876377624,1.7986864612232192,8.493284627368343
0.19788385139152787,1.7984485558038252,8.481641093452492
0.1984946040192795,1.798212288941173,8.469975094442278
0.19910535664703113,1.7979776091745885,8.45828742597255
0.19971610927478275,1.7977444662172262,8.446579035729672
0.20032686190253438,1.7975128110321603,8.434851020896629
0.200937614530286,1.797282595905393,8.423104625186632
0.20154836715803764,1.7970537745155823,8.411341235471848
0.20215911978578927,1.7968263020003072,8.399562378017645
0.20276987241354089,1.7966001350186984,8.38776971433114
0.20338062504129253,1.7963752318102708,8.375965036636162
0.20399137766904415,1.7961515522498028,8.364150262986627
0.2046021302967958,1.795929057898126,8.352327432031643
0.20521288292454742,1.7957077120486966,8.34049869744732
0.20582363555229904,1.795487479769831,8.328666322050292
0.2064343881800507,1.795268327942503,8.316832671609365
0.2070451408078023,1.7950502252936102,8.30500020837277
0.2076558934355539,1.7948331424246353,8.293171484329347
0.20826664606330555,1.7946170518356364,8.28134913422207
0.20887739869105718,1.7944019279445111,8.269535868334117
0.20948815131880882,1.7941877471015053,8.257734465067461
0.21009890394656044,1.793974487598936,8.245947763335407
0.21070965657431207,1.7937621296761206,8.234178654790185
0.2113204092020637,1.793550655519513,8.222430075907962
0.21193116182981533,1.7933400492580698,8.21070499995343
0.21254191445756698,1.7931302969538672,8.199006428847092
0.2131526670853186,1.7929213865880211,8.187337384958376
0.21376341971307022,1.7927133080419604,8.175700902847613
