frequency,refractiveIndex,absorption
0.0006107526277516292,2.7366382536624836,0.0036123107837455937
0.0012215052555032584,2.7358509149433643,0.014434829546645054
0.0018322578832548875,2.7345422946106224,0.0324244792705955
0.002443010511006517,2.7327177632826887,0.057510006817007256
0.003053763138758146,2.730384749640864,0.08959278216870246
0.003664515766509775,2.7275526529374465,0.12854789075960923
0.004275268394261404,2.724232734224003,0.17422549360313966
0.004886021022013034,2.7204379888716113,0.22645242449590475
0.005496773649764663,2.71618300330339,0.2850339893268591
0.006107526277516292,2.7114837990963103,0.34975592957105456
0.006718278905267922,2.7063576677317736,0.42038651042862996
0.00732903153301955,2.700822999285963,0.49667869375103507
0.00793978416077118,2.6948991082599005,0.5783723567854036
0.008550536788522809,2.688606059568466,0.6651965197227543
0.009161289416274438,2.6819644974531953,0.7568715478784463
0.009772042044026067,2.674995479772452,0.8531112978659101
0.010382794671777697,2.6677203197735793,0.9536251811411866
0.010993547299529326,2.660160437081323,1.058120122594919
0.011604299927280955,2.652337219261715,1.1663023962647694
0.012215052555032585,2.6442718949546604,1.27787932457192
0.012825805182784214,2.635985419222662,1.3925608316141516
0.013436557810535843,2.627498371446461,1.5100608448697506
0.014047310438287471,2.6188308658170705,1.6300985431050092
0.0146580630660391,2.6100024742307384,1.7523994512846726
0.015268815693790731,2.6010321611911777,1.876696385837901
0.01587956832154236,2.59193823016057,2.0027302557285056
0.01649032094929399,2.582738280676355,2.1302507264348196
0.017101073577045618,2.5734491754612963,2.259016755188569
0.01771182620479725,2.5640870166963867,2.3887970066920516
0.018322578832548876,2.554667130595717,2.519370159070977
0.018933331460300507,2.5452040594154317,2.650525110073336
0.019544084088052135,2.535711560040962,2.7820610935367887
0.020154836715803762,2.526202608324405,2.913787715964475
0.020765589343555393,2.5166894083830553,3.045524922711104
0.02137634197130702,2.507183406118069,3.1771029028266935
0.021987094599058652,2.497695306265714,3.308361941066163
0.02259784722681028,2.4882350923506826,3.43915222497825
0.02320859985456191,2.47881204896924,3.569333614360662
0.023819352482313542,2.4694347858882324,3.698775379730641
0.02443010511006517,2.4601112635026188,3.8273559158245565
0.025040857737816797,2.45084881924866,3.9549624355233366
0.025651610365568428,2.441654194621127,4.081490649006745
0.026262362993320056,2.432533562490828,4.206844432379945
0.026873115621071687,2.4234925544627686,4.330935489491348
0.027483868248823314,2.414536288055418,4.453683010176446
0.028094620876574942,2.4056693935180298,4.575013327717795
0.028705373504326573,2.396896040135311,4.694859577907242
0.0293161261320782,2.388219961897773,4.813161361731861
0.029926878759829835,2.379644482441499,4.9298644133776195
0.030537631387581463,2.3711725391833736,5.0449202749543
0.03114838401533309,2.3628067065970666,5.158285979086372
0.03175913664308472,2.3545492185918206,5.269923740288536
0.03236988927083635,2.3464019899701354,5.37980065584534
0.03298064189858798,2.338366636952518,5.487888416741302
0.03359139452633961,2.3304444967675484,5.594163029039277
0.034202147154091235,2.322636646313709,5.698604545974309
0.03481289978184286,2.314943919906363,5.8011968109217555
0.0354236524095945,2.3073669261286547,5.901927211303282
0.036034405037346125,2.2999060638094386,6.00078644341561
0.03664515766509775,2.2925615371547208,6.097768288100359
0.03725591029284938,2.2853333700614913,6.192869397117528
0.037866662920601014,2.2782214196446473,6.286089090039251
0.038477415548352635,2.271225389008831,6.3774291614436995
0.03908816817610427,2.2643448392976278,6.466893698157662
0.039698920803855904,2.2575792010527413,6.554488906272682
0.040309673431607525,2.2509277849157203,6.6402229476410675
0.04092042605935916,2.2443897917042452,6.724105785543421
0.04153117868711079,2.2379643218944554,6.806149039208056
0.04214193131486242,2.231650384539881,6.886365846857272
0.04275268394261404,2.2254469056566233,6.964770736948582
0.04336343657036568,2.219352736103321,7.041379507278224
0.043974189198117304,2.2133666589833596,7.116209111613391
0.04458494182586893,2.2074873965955377,7.189277553520949
0.04519569445362056,2.201713616958225,7.260603787062466
0.045806447081372194,2.196043939930836,7.330207624030312
0.04641719970912382,2.190476942955209,7.398109647402354
0.04702795233687545,2.185011166438329,7.464331130700374
0.047638704964627084,2.1796451187966084,7.528893962941516
0.048249457592378704,2.1743772811808717,7.591820578880055
0.04886021022013034,2.1692061119000443,7.6531338942429565
0.049470962847881966,2.1641300505605128,7.712857245670907
0.050081715475633594,2.1591475219371405,7.771014335084013
0.05069246810338522,2.154256939590917,7.827629178199498
0.051303220731136856,2.149456709247338,7.882726056937053
0.05191397335888848,2.1447452319487468,7.9363294754562865
0.05252472598664011,2.140120906993044,7.988464119579334
0.053135478614391746,2.135582134670405,8.03915481936091
0.05374623124214337,2.1311273188089097,8.08842651457573
0.054356983869895,2.1267548691393445,8.136304222905244
0.05496773649764663,2.1224632034887443,8.182813010611149
0.05557848912539826,2.1182507498117107,8.227977965495544
0.056189241753149884,2.1141159480679326,8.271824171955318
0.05679999438090152,2.1100572519538385,8.314376687947462
0.057410747008653146,2.106073130495855,8.355660523692583
0.05802149963640477,2.1021620695122305,8.395700621951885
0.0586322522641564,2.098322572950049,8.434521839722994
0.059243004891908035,2.094553164103595,8.472148931208498
0.05985375751965967,2.0908523867199347,8.508606531920767
0.06046451014741129,2.087218805997211,8.543919143795419
0.061075262775162925,2.0836510094808625,8.578111121194496
0.06168601540291455,2.080147607862671,8.61120665768924
0.06229676803066618,2.0767072356873153,8.643229773521021
0.0629075206584178,2.073328551970843,8.674204303647837
0.06351827328616944,2.0700102407352525,8.704153886290655
0.06412902591392107,2.066751011463192,8.73310195190389
0.0647397785416727,2.063549599476562,8.761071712500005
0.06535053116942433,2.0604047662426703,8.788086151267915
0.06596128379717596,2.057315299611415,8.814168012430445
0.0665720364249276,2.054280013986799,8.839339791294087
0.06718278905267921,2.051297750436011,8.863623724451728
0.06779354168043085,2.0483673767390966,8.887041780103479
0.06840429430818247,2.0454877873822093,8.90961564846978
0.06901504693593409,2.0426579034972914,8.931366732275322
0.06962579956368573,2.039876672750924,8.952316137287685
0.07023655219143736,2.0371430691850256,8.972484662901682
0.070847304819189,2.0344560930119893,8.991892792763895
0.07145805744694061,2.031814770366767,9.010560685438232
0.07206881007469225,2.0292181530183404,9.028508165116213
0.07267956270244387,2.0266653180429643,9.04575471238147
0.0732903153301955,2.024155367461494,9.062319455041214
0.07390106795794714,2.021687427843076,9.078221159041304
0.07451182058569876,2.019260649877387,9.093478219483831
0.0751225732134504,2.0168742079176294,9.108108651771962
0.07573332584120203,2.014527299496362,9.122130082905903
0.07634407846895366,2.0122191448162727,9.135559742959083
0.07695483109670527,2.009948986217924,9.148414456765284
0.0775655837244569,2.00771608762647,9.160710635848096
0.07817633635220854,2.0055197339793214,9.172464270627316
0.07878708897996017,2.003359230636678,9.183690922937158
0.07939784160771181,2.0012339027768413,9.194405718893332
0.08000859423546343,1.9991430947781634,9.204623342144835
0.08061934686321505,1.9970861695894817,9.21435802755004
0.08123009949096668,1.9950625080908269,9.22362355531294
0.08184085211871832,1.9930715084462038,9.232433245619319
0.08245160474646994,1.991112585450173,9.240799953810136
0.08306235737422157,1.9891851698699534,9.248736066128142
0.08367311000197321,1.9872887077847374,9.256253496076717
0.08428386262972484,1.9854226599238711,9.263363681424245
0.08489461525747646,1.9835865010055138,9.270077581889959
0.08550536788522808,1.9817797190773905,9.276405677543488
0.08611612051297972,1.9800018148611673,9.282357967949801
0.08672687314073135,1.9782523011020017,9.287943972089108
0.08733762576848299,1.9765307019247407,9.293172729079195
0.08794837839623461,1.9748365521982139,9.298052799724937
0.08855913102398623,1.9731693969090542,9.302592268918808
0.08916988365173786,1.971528790546406,9.306798748911831
0.0897806362794895,1.9699142964988474,9.31067938347222
0.09039138890724112,1.968325486464826,9.314240852947234
0.09100214153499275,1.9667619398778404,9.317489380238273
0.09161289416274439,1.96522324334756,9.320430737698524
0.09222364679049602,1.9637089901180311,9.323070254957559
0.09283439941824764,1.9622187795440467,9.325412827673793
0.09344515204599926,1.9607522165867226,9.327462927213604
0.0940559046737509,1.9593089113292523,9.32922461125055
0.09466665730150253,1.9578884785137545,9.330701535275265
0.09527740992925417,1.956490537100067,9.331896965003097
0.09588816255700579,1.9551147098472783,9.33281378966249
0.09649891518475741,1.9537606229187099,9.33345453614261
0.09710966781250904,1.9524279055110072,9.333821383976298
0.09772042044026068,1.9511161895079194,9.333916181130022
0.09833117306801231,1.949825109159269,9.333740460567903
0.09894192569576393,1.9485543007855484,9.333295457555208
0.09955267832351557,1.947303402508487,9.33258212766049
0.10016343095126719,1.9460720540078804,9.331601165415247
0.10077418357901882,1.9448598963048602,9.3303530235832
0.10138493620677044,1.9436665715717272,9.328837932990886
0.10199568883452208,1.9424917229683796,9.327055922866315
0.10260644146227371,1.9413349945052778,9.325006841630396
0.10321719409002535,1.9401960309328306,9.322690378083323
0.10382794671777695,1.939074477656961,9.320106082924477
0.10443869934552859,1.937969980680577,9.317253390543273
0.10504945197328022,1.936882186570552,9.314131641016031
0.10566020460103186,1.9358107424497621,9.310740102241688
0.10627095722878349,1.9347552960136272,9.307077992147779
0.10688170985653511,1.933715495570554,9.303144500898002
0.10749246248428675,1.9326909901055696,9.29893881302937
0.10810321511203837,1.9316814293663882,9.294460129448868
0.10871396773979,1.930686463971066,9.289707689217341
0.10932472036754162,1.9297057455363313,9.284680791048997
0.10993547299529326,1.928738926825633,9.279378814455466
0.11054622562304489,1.927785661915854,9.273801240462799
0.11115697825079653,1.9268456063816113,9.267947671832248
0.11176773087854816,1.9259184174959956,9.26181785271566
0.11237848350629977,1.9250037544465521,9.255411687677837
0.1129892361340514,1.9241012785652747,9.248729260021378
0.11359998876180304,1.923210653571328,9.241770849349745
0.11421074138955467,1.9223315458251902,9.2345369483078
0.11482149401730629,1.9214636245928833,9.22702827844205
0.11543224664505793,1.9206065623189135,9.21924580512457
0.11604299927280955,1.9197600349065571,9.211190751488589
0.11665375190056118,1.9189237220040865,9.20286461132752
0.1172645045283128,1.9180973072955383,9.194269160911341
0.11787525715606444,1.9172804787946218,9.185406469679894
0.11848600978381607,1.916472929140373,9.176278909775355
0.1190967624115677,1.915674355893151,9.166889164380654
0.11970751503931934,1.9148844618296255,9.157240234835399
0.12031826766707095,1.9141029552353752,9.147335446504714
0.12092902029482258,1.9133295501937846,9.13717845338053
0.12153977292257422,1.9125639668699377,9.126773241401335
0.12215052555032585,1.911805931788236,9.116124130478143
0.12276127817807747,1.9110551781025238,9.105235775221836
0.1233720308058291,1.910311445857538,9.09411316437008
0.12398278343358073,1.9095744822405412,9.082761618916859
0.12459353606133236,1.9088440418220656,9.071186788953456
0.125204288689084,1.9081198867847369,9.0593946492322
0.1258150413168356,1.9074017871391988,9.047391493471165
0.12642579394458725,1.9066895209262458,9.035183927419896
0.12703654657233887,1.9059828744043021,9.022778860713007
0.12764729920009052,1.9052816422214827,9.010183497541233
0.12825805182784214,1.9045856275715065,8.997405326172483
0.12886880445559376,1.90389464233283,8.984452107362618
0.1294795570833454,1.9032085071904221,8.971331861695157
0.13009030971109703,1.9025270517396828,8.958052855896682
0.13070106233884865,1.9018501145720585,8.944623588173723
0.13131181496660027,1.9011775433420173,8.93105277262462
0.13192256759435192,1.9005091948150723,8.917349322778577
0.13253332022210354,1.8998449348966515,8.903522334319115
0.1331440728498552,1.8991846386416629,8.889581067051266
0.13375482547760678,1.8985281902446722,8.87553492617302
0.13436557810535843,1.897875483010693,8.861393442914661
0.13497633073311005,1.897226419306642,8.84716625461054
0.1355870833608617,1.8965809104935851,8.832863084269524
0.13619783598861332,1.8959388768399656,8.818493719712098
0.13680858861636494,1.895300247416053,8.80406799234174
0.13741934124411656,1.8946649599699383,8.789595755620748
0.13803009387186818,1.894032960785427,8.775086863319512
0.13864084649961983,1.893404204522257,8.760551147609766
0.13925159912737145,1.89277865403912,8.745998397071718
0.1398623517551231,1.892156280200002,8.731438334685434
0.14047310438287472,1.8915370616644158,8.716880595875104
0.14108385701062634,1.8909209846621455,8.702334706676739
0.141694609638378,1.8903080427531522,8.687810062096354
0.1423053622661296,1.8896982365733432,8.673315904726364
0.14291611489388123,1.8890915735669305,8.658861303686763
0.14352686752163288,1.8884880677061424,8.644455133955566
0.1441376201493845,1.887887739199091,8.63010605615181
0.14474837277713615,1.8872906141866046,8.615822496833426
0.14535912540488774,1.8866967244288815,8.601612629369342
0.14596987803263936,1.8861061069828262,8.587484355443943
0.146580630660391,1.8855188038709583,8.573445287250035
0.14719138328814263,1.884934861742792,8.559502730423542
0.14780213591589428,1.8843543315296098,8.545663667771246
0.1484128885436459,1.8837772680935478,8.531934743841031
0.14902364117139752,1.883203729871933,8.518322250379763
0.14963439379914917,1.882633778517814,8.504832112723088
0.1502451464269008,1.882067478537622,8.491469877157465
0.15085589905465244,1.8815048969269137,8.478240699292657
0.15146665168240406,1.8809461028051342,8.465149333478625
0.15207740431015568,1.8803911670503375,8.45220012329995
0.15268815693790733,1.8798401619348022,8.439396993175095
0.15329890956565892,1.8792931607624541,8.426743441086685
0.15390966219341054,1.878750237509026,8.414242532464947
0.1545204148211622,1.878211466465837,8.401896895242928
0.1551311674489138,1.8776769218880855,8.389708716099458
0.15574192007666546,1.8771466776485266,8.377679737901527
0.15635267270441708,1.8766208068973724,8.365811258355178
0.1569634253321687,1.8760993817292553,8.354104129869897
0.15757417795992035,1.8755824728580515,8.342558760638799
0.15818493058767197,1.8750701493003534,8.331175116932371
0.15879568321542362,1.874562478068341,8.319952726600897
0.15940643584317524,1.8740595238727753,8.30889068377686
0.16001718847092686,1.8735613488368281,8.297987654765823
0.1606279410986785,1.8730680122213959,8.287241885108903
0.1612386937264301,1.8725795701625398,8.276651207799272
0.16184944635418172,1.8720960754216567,8.266213052629702
0.16246019898193337,1.8716175771489314,8.255924456645129
0.163070951609685,1.8711441206606154,8.24578207567228
0.16368170423743664,1.8706757472306017,8.235782196893123
0.16429245686518826,1.870212493896759,8.225920752427054
0.16490320949293988,1.8697543932824274,8.216193333884231
0.16551396212069153,1.8693014734334432,8.20659520784718
0.16612471474844315,1.868853757671015,8.197121332237806
0.1667354673761948,1.8684112644607358,8.187766373521773
0.16734622000394642,1.8679740072979623,8.178524724701198
0.16795697263169804,1.867541994609752,8.169390524042788
0.16856772525944969,1.8671152296735054,8.160357674487631
0.16917847788720128,1.8666937105524088,8.15141986368507
0.16978923051495293,1.8662774300477294,8.142570584591837
0.17039998314270455,1.8658663756679712,8.133803156576448
0.17101073577045617,1.8654605296148405,8.12511074696508
0.17162148839820782,1.8650598687859439,8.116486392965596
0.17223224102595944,1.8646643647940666,8.107923023904043
0.17284299365371106,1.8642739840028633,8.099413483706877
0.1734537462814627,1.8638886875787217,8.09095055356179
0.17406449890921433,1.8635084315585269,8.082526974688017
0.17467525153696598,1.8631331669330051,8.074135471147667
0.1752860041647176,1.862762839745288,8.065768772629372
0.17589675679246922,1.8623973912042786,8.057419637133851
0.17650750942022086,1.8620367578123818,8.049080873493601
0.17711826204797246,1.8616808715071018,8.040745363656615
0.1777290146757241,1.8613296598159779,8.03240608466721
0.17833976730347573,1.8609830460242944,8.024056130275754
0.17895051993122735,1.8606409493549596,8.015688732111736
0.179561272558979,1.8603032851599155,8.007297280354475
0.18017202518673062,1.859969965122412,7.998875343838946
0.18078277781448224,1.8596408974694467,7.990416689534096
0.18139353044223389,1.859315987193641,7.981915301335374
0.1820042830699855,1.8589951362837998,7.973365398111733
0.18261503569773715,1.858678243963383,7.964761450954355
0.18322578832548878,1.8583652069360963,7.956098199573165
0.1838365409532404,1.858055919637775,7.9473706677914215
0.18444729358099204,1.8577502744937497,7.938574178092051
0.18505804620874364,1.8574481621808419,7.9297043651716175
0.18566879883649529,1.8571494718931405,7.920757188461878
0.1862795514642469,1.8568540916107101,7.9117289435811085
0.18689030409199853,1.856561908370361,7.902616272683617
0.18750105671975018,1.856272808537625,7.893416173674543
0.1881118093475018,1.8559866780790781,7.884126008267448
0.18872256197525342,1.855703402834152,7.8747435088601945
0.18933331460300507,1.8554228687855892,7.865266784211867
0.18994406723075669,1.8551449623277088,7.855694323906497
0.19055481985850833,1.8548695705316511,7.846025001593255
0.19116557248625995,1.8545965814068066,7.836258076997737
0.19177632511401158,1.8543258841576264,7.826393196701563
0.19238707774176322,1.8540573694350593,7.816430393692933
0.19299783036951482,1.8537909295818638,7.806370085695077
0.19360858299726647,1.8535264588710825,7.796213072281497
0.19421933562501809,1.8532638537369819,7.78596053079321
0.1948300882527697,1.8530030129978106,7.775614011076467
0.19544084088052135,1.8527438380697343,7.765175429062602
0.19605159350827298,1.8524862331713652,7.754647059215312
0.19666234613602462,1.8522301055183286,7.744031525876694
0.19727309876377624,1.8519753655073385,7.733331793542808
0.19788385139152787,1.8517219268893137,7.722551156106899
0.1984946040192795,1.8514697069310826,7.711693225109276
0.19910535664703113,1.8512186265652848,7.700761917036768
0.19971610927478275,1.8509686105281113,7.689761439717296
0.20032686190253438,1.850719587484565,7.678696277858704
0.200937614530286,1.8504714901409747,7.667571177781631
0.20154836715803764,1.8502242553445314,7.656391131401447
0.20215911978578927,1.8499778241696714,7.645161359513717
0.20276987241354089,1.8497321419911563,7.633887294440821
0.20338062504129253,1.8494871585437687,7.622574562100235
0.20399137766904415,1.8492428279685595,7.611228963553521
0.2046021302967958,1.8489991088456508,7.599856456100246
0.20521288292454742,1.848755964213625,7.588463133978257
0.20582363555229904,1.84851336157558,7.577055208736458
0.2064343881800507,1.848271272891972,7.5656389893432054
0.2070451408078023,1.8480296745604026,7.5542208620969635
0.2076558934355539,1.8477885473825602,7.542807270404401
0.20826664606330555,1.847547876518541,7.531404694490874
0.20887739869105718,1.8473076514288411,7.5200196311097525
0.20948815131880882,1.847067865804318,7.508658573314795
0.21009890394656044,1.8468285174844814,7.497327990359756
0.21070965657431207,1.8465896083644793,7.4860343077894935
0.2113204092020637,1.8463511442912004,7.474783887783811
0.21193116182981533,1.8461131349489281,7.46358300981625
0.21254191445756698,1.8458755937350138,7.452437851687007
0.2131526670853186,1.8456385376260604,7.441354470988188
0.21376341971307022,1.8454019870351408,7.430338787057663
0.21437417234082187,1.8451659656605783,7.419396563476531
0.2149849249685735,1.8449305003268597,7.408533391161213
