frequency,refractiveIndex,absorption
0.0006107526277516292,2.623432429442473,0.0024377381962931302
0.0012215052555032584,2.6230209278072305,0.009745313687155066
0.0018322578832548875,2.6223361473374047,0.021905845014579768
0.002443010511006517,2.621379663980719,0.0388913153914234
0.003053763138758146,2.620153669299341,0.060662749506424626
0.003664515766509775,2.618660955951479,0.08717045777228756
0.004275268394261404,2.616904899370067,0.11835434482882969
0.004886021022013034,2.614889435886074,0.15414427832864241
0.005496773649764663,2.612619037587125,0.19446051333667871
0.006107526277516292,2.610098684238353,0.23921416708084114
0.006718278905267922,2.6073338326218916,0.2883077383078703
0.00732903153301955,2.6043303836730587,0.34163566513381644
0.00793978416077118,2.6010946478053474,0.39908491503361027
0.008550536788522809,2.597633308822872,0.4605356004893268
0.009161289416274438,2.593953386817974,0.5258616138067551
0.009772042044026067,2.5900622004440166,0.5949312747087859
0.010382794671777697,2.585967328939563,0.6676079845117326
0.010993547299529326,2.5816765742606553,0.7437508809762279
0.011604299927280955,2.5771979236540274,0.8232154882844104
0.012215052555032585,2.5725395129763475,0.9058543570173655
0.012825805182784214,2.5677095910340584,0.9915176894757702
0.013436557810535843,2.5627164851859496,1.080053946190074
0.014047310438287471,2.557568568417034,1.1713104299902894
0.0146580630660391,2.5522742280584536,1.265133844537699
0.015268815693790731,2.546841836294782,1.3613708247500758
0.01587956832154236,2.541279722567586,1.4598684370688357
0.01649032094929399,2.535596147953336,1.5604746480124245
0.017101073577045618,2.529799281564852,1.6630387599282885
0.01771182620479725,2.523897178998767,1.7674118132906926
0.018322578832548876,2.517897762827505,1.8734469552898063
0.018933331460300507,2.511808805112745,1.9809997748158183
0.019544084088052135,2.5056379118984706,2.089928604259119
0.020154836715803762,2.4993925096258724,2.200094788824424
0.020765589343555393,2.4930798333986552,2.31136292429184
0.02137634197130702,2.4867069170165608,2.423601064354851
0.021987094599058652,2.480280584686269,2.5366808988245193
0.02259784722681028,2.473807444312494,2.650477904113652
0.02320859985456191,2.467293882267685,2.764871467507339
0.023819352482313542,2.460746059536213,2.879744986790377
0.02443010511006517,2.454169909127876,2.9949859468390163
0.025040857737816797,2.4475711346559272,3.1104859748001314
0.025651610365568428,2.440955209976454,3.226140875475471
0.026262362993320056,2.4343273797883738,3.3418506485071138
0.026873115621071687,2.4276926610967533,3.4575194889239014
0.027483868248823314,2.421055845446071,3.573055772561619
0.028094620876574942,2.4144215018345827,3.6883720278119543
0.028705373504326573,2.4077939802257537,3.8033848950924014
0.0293161261320782,2.401177415577828,3.9180150753589977
0.029926878759829835,2.3945757323178163,4.032187268911484
0.030537631387581463,2.387992649191463,4.145830105665889
0.03114838401533309,2.3814316844260004,4.2588760679930795
0.03175913664308472,2.3748961611476362,4.371261407146472
0.03236988927083635,2.3683892130008095,4.482926054228031
0.03298064189858798,2.3619137899210227,4.593813526568063
0.03359139452633961,2.3554726640177504,4.703870830324676
0.034202147154091235,2.349068435528321,4.813048360040515
0.03481289978184286,2.3427035388078172,4.921299795830155
0.0354236524095945,2.3363802483239864,5.0285819988102824
0.036034405037346125,2.3301006846297643,5.134854905326765
0.03664515766509775,2.3238668202894206,5.240081420478767
0.03725591029284938,2.31768048573748,5.3442273113894165
0.037866662920601014,2.3115433750524095,5.447261100624707
0.038477415548352635,2.305457051629761,5.549153960119964
0.03908816817610427,2.299422953741804,5.649879605930824
0.039698920803855904,2.293442399972905,5.749414194090754
0.040309673431607525,2.287516594521859,5.847736217820804
0.04092042605935916,2.2816466323641507,5.9448264063077385
0.04153117868711079,2.275833504268756,6.0406676252368605
0.04214193131486242,2.2700781016654146,6.135244779240889
0.04275268394261404,2.264381221359702,6.228544716401774
0.04336343657036568,2.258743570094173,6.320556134921596
0.043974189198117304,2.2531657689549784,6.411269492058498
0.04458494182586893,2.24764835762409,6.5006769154072215
0.04519569445362056,2.2421917984780797,6.588772116586895
0.045806447081372194,2.2367964805349922,6.675550307385309
0.04641719970912382,2.231462723251403,6.76100811839583
0.04702795233687545,2.2261907801722134,6.845143520171575
0.047638704964627084,2.2209808424361097,6.927955746911606
0.048249457592378704,2.215833042139937,7.009445222684397
0.04886021022013034,2.210747455565471,7.089613490185686
0.049470962847881966,2.20572410627228,7.1684631420204745
0.050081715475633594,2.2007629680605487,7.245997754493075
0.05069246810338522,2.195863967807775,7.322221823882077
0.051303220731136856,2.1910269881833906,7.39714070517326
0.05191397335888848,2.186251870245374,7.470760553218146
0.05252472598664011,2.181538415922921,7.543088266282407
0.053135478614391746,2.1768863903892277,7.614131431944072
0.05374623124214337,2.1722955243284354,7.683898275299309
0.054356983869895,2.167765516100715,7.752397609430593
0.05496773649764663,2.1632960338093747,7.819638788088613
0.05557848912539826,2.158886717273865,7.88563166053949
0.056189241753149884,2.1545371799124085,7.950386528525076
0.05679999438090152,2.150247010537885,8.01391410528324
0.057410747008653146,2.1460157750705613,8.076225476574946
0.05802149963640477,2.141843018171073,8.137332063662326
0.0586322522641564,2.1377282647969857,8.19724558818198
0.059243004891908035,2.133671021686162,8.25597803885714
0.05985375751965967,2.1296707787700337,8.313541639992184
0.06046451014741129,2.125727010519755,8.36994882169167
0.061075262775162925,2.121839177228105,8.425212191747368
0.06168601540291455,2.118006726229903,8.47934450913586
0.06229676803066618,2.114229093063576,8.532358659069677
0.0629075206584178,2.1105057025764107,8.584267629545618
0.06351827328616944,2.106835969975921,8.63508448933354
0.06412902591392107,2.103219301829651,8.684822367350684
0.0647397785416727,2.099655097015621,8.73349443336521
0.06535053116942433,2.096142747625567,8.781113879975987
0.06596128379717596,2.092681639822981,8.827693905814323
0.0665720364249276,2.0892711546578764,8.873247699914536
0.06718278905267921,2.085910668840167,8.917788427202908
0.06779354168043085,2.0825995554733923,8.961329215053219
0.06840429430818247,2.0793371847504636,9.003883140859386
0.06901504693593409,2.076122924613089,9.045463220577696
0.06962579956368573,2.0729561413763515,9.086082398189978
0.07023655219143736,2.069836200319948,9.125753536042852
0.070847304819189,2.0667624662474635,9.164489406017841
0.07145805744694061,2.0637343040150333,9.202302681488494
0.07206881007469225,2.0607510790306485,9.239205930023655
0.07267956270244387,2.0578121577253463,9.27521160679458
0.0732903153301955,2.054916907997424,9.310332048647956
0.07390106795794714,2.0520646996308267,9.344579468806378
0.07451182058569876,2.049254904688734,9.377965952159203
0.0751225732134504,2.046486897883393,9.410503451109568
0.07573332584120203,2.0437600569231833,9.442203781943864
0.07634407846895366,2.041073762837815,9.473078621690536
0.07695483109670527,2.038427400282604,9.503139505438309
0.0775655837244569,2.035820357822655,9.532397824084281
0.07817633635220854,2.0332520281977984,9.560864822482884
0.07878708897996017,2.030721808569074,9.588551597970683
0.07939784160771181,2.028229100747536,9.615469099240558
0.08000859423546343,2.0257733114060996,9.641628125541061
0.08061934686321505,2.0233538522751755,9.667039326179722
0.08123009949096668,2.0209701403227416,9.691713200307458
0.08184085211871832,2.018621597919542,9.715660096964418
0.08245160474646994,2.0163076529900494,9.738890215369198
0.08306235737422157,2.01402773914981,9.76141360543222
0.08367311000197321,2.0117812958297487,9.783240168477816
0.08428386262972484,2.0095677683880715,9.804379658159485
0.08489461525747646,2.0073866082102594,9.824841681553217
0.08550536788522808,2.005237272797761,9.844635700416461
0.08611612051297972,2.0031192258458703,9.863771032599622
0.08672687314073135,2.0010319373113266,9.882256853599259
0.08733762576848299,1.9989748834701413,9.900102198242257
0.08794837839623461,1.9969475469661147,9.91731596249084
0.08855913102398623,1.9949494168505462,9.933906905360761
0.08916988365173786,1.9929799886135768,9.94988365094338
0.0897806362794895,1.9910387642076206,9.965254690525176
0.09039138890724112,1.989125252063326,9.980028384797205
0.09100214153499275,1.9872389670984882,9.994212966149592
0.09161289416274439,1.9853794307203325,10.007816541044448
0.09222364679049602,1.9835461708215667,10.020847092462954
0.09283439941824764,1.9817387217706046,10.03331248242213
0.09344515204599926,1.9799566243963407,10.045220454556759
0.0940559046737509,1.9781994259678586,10.056578636764236
0.09466665730150253,1.9764666801694262,10.06739454390691
0.09527740992925417,1.974757947071146,10.077675580571311
0.09588816255700579,1.9730727930956027,10.087429043880052
0.09649891518475741,1.9714107909808392,10.096662126354294
0.09710966781250904,1.9697715197400076,10.105381918824895
0.09772042044026068,1.968154564617991,10.113595413389824
0.09833117306801231,1.9665595170453267,10.121309506415734
0.09894192569576393,1.9649859745897182,10.128531001581637
0.09955267832351557,1.9634335409054313,10.135266612963242
0.10016343095126719,1.9619018256808685,10.141522968155423
0.10077418357901882,1.960390444584562,10.147306611431052
0.10138493620677044,1.958899019209894,10.152624006934225
0.10199568883452208,1.957427177018761,10.157481541905662
0.10260644146227371,1.9559745512844329,10.161885529937443
0.10321719409002535,1.9545407810338633,10.16584221425581
0.10382794671777695,1.9531255109896393,10.169357771027975
0.10443869934552859,1.951728391511813,10.17243831269134
0.10504945197328022,1.9503490785398077,10.175089891301328
0.10566020460103186,1.9489872335345786,10.177318501894495
0.10627095722878349,1.9476425234212345,10.179130085864022
0.10688170985653511,1.9463146205322654,10.180530534343298
0.10749246248428675,1.9450032025515611,10.181525691593679
0.10810321511203837,1.943707952459342,10.182121358391868
0.10871396773979,1.942428558478166,10.18232329541282
0.10932472036754162,1.941164714020117,10.182137226602837
0.10993547299529326,1.9399161176353013,10.181568842537958
0.11054622562304489,1.9386824729617502,10.180623803761724
0.11115697825079653,1.9374634886768272,10.179307744097644
0.11176773087854816,1.936258878450205,10.177626273929242
0.11237848350629977,1.9350683608985,10.175584983441855
0.1129892361340514,1.9338916595416078,10.173189445820354
0.11359998876180304,1.9327285027607906,10.170445220395287
0.11421074138955467,1.9315786237585493,10.167357855730545
0.11482149401730629,1.9304417605203092,10.163932892646686
0.11543224664505793,1.9293176557779175,10.160175867170414
0.11604299927280955,1.9282060569749713,10.156092313405455
0.11665375190056118,1.9271067162339541,10.151687766315426
0.1172645045283128,1.9260193903251615,10.146967764411045
0.11787525715606444,1.924943840637389,10.141937852335788
0.11848600978381607,1.9238798331503433,10.136603583339902
0.1190967624115677,1.9228271384087186,10.130970521636776
0.11970751503931934,1.9217855314978833,10.125044244632665
0.12031826766707095,1.920754792021103,10.118830345023005
0.12092902029482258,1.9197347040782304,10.112334432746875
0.12153977292257422,1.9187250562457667,10.10556213679241
0.12215052555032585,1.9177256415582016,10.098519106845728
0.12276127817807747,1.9167362574905331,10.091211014776013
0.1233720308058291,1.9157567059418519,10.083643555949324
0.12398278343358073,1.9147867932198832,10.075822450364955
0.12459353606133236,1.913826330026347,10.067753443606755
0.125204288689084,1.9128751314430317,10.059442307604382
0.1258150413168356,1.9119330169184237,10.050894841196884
0.12642579394458725,1.9109998102547725,10.042116870494377
0.12703654657233887,1.910075339595434,10.033114249031218
0.12764729920009052,1.9091594374123626,10.023892857707173
0.12825805182784214,1.9082519404935812,10.01445860451042
0.12886880445559376,1.9073526899304991,10.00481742402015
0.1294795570833454,1.906461531104908,9.994975276683949
0.13009030971109703,1.9055783136754993,9.98493814786713
0.13070106233884865,1.9047028915637636,9.974712046672364
0.13131181496660027,1.903835122939091,9.964303004526592
0.13192256759435192,1.9029748702029337,9.953717073534495
0.13253332022210354,1.9021219999718675,9.942960324598127
0.1331440728498552,1.9012763830593884,9.932038845300935
0.13375482547760678,1.9004378944563114,9.920958737559324
0.13436557810535843,1.8996064133096036,9.909726115040545
0.13497633073311005,1.8987818228995001,9.89834710034964
0.1355870833608617,1.8979640106147786,9.886827821988575
0.13619783598861332,1.8971528679260314,9.875174411089636
0.13680858861636494,1.896348290356806,9.863392997927626
0.13741934124411656,1.8955501774524888,9.851489708215773
0.13803009387186818,1.8947584327467906,9.839470659189564
0.13864084649961983,1.8939729637257317,9.827341955485831
0.13925159912737145,1.8931936817890036,9.81510968482283
0.1398623517551231,1.8924205022085936,9.802779913489486
0.14047310438287472,1.8916533440845957,9.790358681651375
0.14108385701062634,1.890892130298088,9.777851998483088
0.141694609638378,1.890136787461015,9.765265837135122
0.1423053622661296,1.8893872458629941,9.752606129547672
0.14291611489388123,1.8886434394149683,9.739878761119916
0.14352686752163288,1.8879053055896744,9.72708956524848
0.1441376201493845,1.887172785358853,9.714244317745592
0.14474837277713615,1.8864458231271826,9.7013487311511
0.14535912540488774,1.8857243666628998,9.688408448950652
0.14596987803263936,1.885008367025101,9.675429039715036
0.146580630660391,1.8842977784877086,9.662415991174704
0.14719138328814263,1.8835925584601134,9.649374704244599
0.14780213591589428,1.8828926674045177,9.636310487014685
0.1484128885436459,1.8821980687499915,9.623228548723072
0.14902364117139752,1.8815087288032963,9.610133993726766
0.14963439379914917,1.8808246166565206,9.597031815487876
0.1502451464269008,1.8801457040915948,9.583926890592123
0.15085589905465244,1.879471965481756,9.570823972817124
0.15146665168240406,1.8788033776900523,9.557727687267677
0.15207740431015568,1.8781399199649855,9.54464252459666
0.15268815693790733,1.8774815738333994,9.531572835328715
0.15329890956565892,1.8768283229907365,9.518522824305737
0.15390966219341054,1.8761801531887967,9.505496545271246
0.1545204148211622,1.8755370521211376,9.492497895612598
0.1551311674489138,1.874899009306276,9.479530611278618
0.15574192007666546,1.8742660159688536,9.466598261891326
0.15635267270441708,1.8736380649189373,9.453704246067584
0.1569634253321687,1.8730151504296497,9.440851786971155
0.15757417795992035,1.872397268113312,9.428043928109354
0.15818493058767197,1.8717844147963143,9.415283529392992
0.15879568321542362,1.8711765883929183,9.40257326347554
0.15940643584317524,1.8705737877782147,9.389915612386883
0.16001718847092686,1.8699760126604625,9.377312864477808
0.1606279410986785,1.869383263453052,9.364767111689797
0.1612386937264301,1.868795541146318,9.352280247163248
0.16184944635418172,1.8682128471794677,9.339853963199504
0.16246019898193337,1.8676351833128604,9.327489749586658
0.163070951609685,1.8670625515009083,9.315188892303524
0.16368170423743664,1.8664949537658444,9.302952472610537
0.16429245686518826,1.865932392072632,9.29078136653855
0.16490320949293988,1.8653748682052778,9.27867624478437
0.16551396212069153,1.8648223836448112,9.266637573020596
0.16612471474844315,1.864274939449196,9.254665612626756
0.1667354673761948,1.8637325361354482,9.24276042184719
0.16734622000394642,1.863195173564216,9.23092185738078
0.16795697263169804,1.8626628508270882,9.219149576404902
0.16856772525944969,1.8621355661368937,9.207443039036672
0.16917847788720128,1.8616133167212408,9.195801511231382
0.16978923051495293,1.8610960987195564,9.184224068118068
0.17039998314270455,1.8605839070838635,9.172709597771341
0.17101073577045617,1.8600767354835377,9.161256805414201
0.17162148839820782,1.8595745762142808,9.149864218049546
0.17223224102595944,1.8590774201115252,9.138530189514057
0.17284299365371106,1.858585256468491,9.12725290594618
0.1734537462814627,1.8580980729591043,9.116030391661997
0.17406449890921433,1.8576158555659588,9.104860515427026
0.17467525153696598,1.8571385885135165,9.093740997114084
0.1752860041647176,1.8566662542067207,9.082669414735483
0.17589675679246922,1.8561988331751635,9.071643211833688
0.17650750942022086,1.8557363040229764,9.06065970521827
0.17711826204797246,1.8552786433845605,9.049716093031302
0.1777290146757241,1.8548258258862786,9.038809463123872
0.17833976730347573,1.8543778241142184,9.027936801727158
0.17895051993122735,1.8539346085881019,9.017095002395735
0.179561272558979,1.8534961477414271,9.006280875205178
0.18017202518673062,1.8530624079078866,8.995491156180641
0.18078277781448224,1.852633353314111,8.984722516935046
0.18139353044223389,1.8522089460787556,8.973971574492754
0.1820042830699855,1.8517891462179328,8.963234901274703
0.18261503569773715,1.851373911656991,8.952509035220622
0.18322578832548878,1.8509631982485986,8.941790490021964
0.1838365409532404,1.850556959797098,8.931075765440234
0.18444729358099204,1.8501551480890575,8.920361357682614
0.18505804620874364,1.849757712929949,8.90964376980955
0.18566879883649529,1.8493646021868564,8.898919522145366
0.1862795514642469,1.8489757618370894,8.888185162664566
0.18689030409199853,1.8485911360225886,8.877437277326022
0.18750105671975018,1.8482106671099605,8.866672500326457
0.1881118093475018,1.8478342957559961,8.855887524246102
0.18872256197525342,1.847461960978479,8.845079110057004
0.18933331460300507,1.8470936002321043,8.834244096967351
0.18994406723075669,1.8467291494892923,8.823379412073637
0.19055481985850833,1.8463685433256816,8.812482079793279
0.19116557248625995,1.846011715010061,8.801549231051082
0.19177632511401158,1.8456585965985002,8.790578112192927
0.19238707774176322,1.8453091190324113,8.779566093600534
0.19299783036951482,1.844963212240282,8.76851067798372
0.19360858299726647,1.8446208052427848,8.757409508323283
0.19421933562501809,1.8442818262609832,8.746260375443303
0.1948300882527697,1.843946202827331,8.735061225188936
0.19544084088052135,1.8436138618991518,8.723810165188654
0.19605159350827298,1.8432847299742905,8.71250547118
0.19666234613602462,1.8429587332086101,8.701145592880065
0.19727309876377624,1.8426357975350116,8.689729159381566
0.19788385139152787,1.8423158487836395,8.678254984058784
0.1984946040192795,1.841998812802938,8.666722068966376
0.19910535664703113,1.8416846155812323,8.65512960871838
0.19971610927478275,1.8413731833684763,8.643476993833444
0.20032686190253438,1.841064442797845,8.631763813535441
0.200937614530286,1.8407583210068224,8.619989857999652
0.20154836715803764,1.8404547457574494,8.608155120036756
0.20215911978578927,1.8401536455553977,8.596259796207095
0.20276987241354089,1.8398549497675398,8.584304287361471
0.20338062504129253,1.8395585887376826,8.572289198603759
0.20399137766904415,1.8392644939001477,8.560215338675205
0.2046021302967958,1.8389725978908757,8.548083718759118
0.20521288292454742,1.8386828346557589,8.535895550708556
0.20582363555229904,1.838395139555887,8.523652244700356
0.2064343881800507,1.838109449469428,8.51135540631993
0.2070451408078023,1.83782570288985,8.499006833084739
0.2076558934355539,1.8375438400202264,8.48660851041394
0.20826664606330555,1.8372638028633568,8.474162607054827
0.20887739869105718,1.836985535307455,8.461671469977759
0.20948815131880882,1.8367089832071835,8.4491376187531
0.21009890394656044,1.8364340944597966,8.436563739424574
0.21070965657431207,1.8361608190761969,8.423952677895647
0.2113204092020637,1.8358891092467147,8.411307432847687
0.21193116182981533,1.8356189194014283,8.39863114820746
0.21254191445756698,1.8353502062648719,8.385927105186882
0.2131526670853186,1.8350829289049841,8.373198713914867
0.21376341971307022,1.8348170487761675,8.360449504686116
0.21437417234082187,1.834552529756362,8.347683118850533
