frequency,refractiveIndex,absorption
0.0006107526277516292,2.9697575336419826,0.007599249128995114
0.0012215052555032584,2.967163042382345,0.030317179829076304
0.0018322578832548875,2.962871724826416,0.06791686106017457
0.002443010511006517,2.9569316658535256,0.12001163481668949
0.003053763138758146,2.94940793424716,0.18607688266537795
0.003664515766509775,2.9403805181245906,0.2654654185601274
0.004275268394261404,2.9299419112822442,0.3574255736638545
0.004886021022013034,2.9181944933155495,0.461120952623777
0.005496773649764663,2.9052478441534397,0.5756508481663968
0.006107526277516292,2.891216120005664,0.700070388477303
0.006718278905267922,2.8762155958939895,0.8334096380602015
0.00732903153301955,2.8603624535980456,0.97469105284687
0.00793978416077118,2.843770866455253,1.1229448805640883
0.008550536788522809,2.8265514068137416,1.2772222782507567
0.009161289416274438,2.8088097799666674,1.4366060766331208
0.009772042044026067,2.7906458711163746,1.600219248088338
0.010382794671777697,2.7721530795765776,1.7672312286891432
0.010993547299529326,2.753417906700526,1.9368623068239155
0.011604299927280955,2.7345197602501763,2.1083863251774577
0.012215052555032585,2.7155309372620238,2.2811319547657107
0.012825805182784214,2.696516749067821,2.4544827948520815
0.013436557810535843,2.6775357552199335,2.627876536158653
0.014047310438287471,2.6586400770062637,2.800803401283962
0.0146580630660391,2.639875765518538,2.972804049195097
0.015268815693790731,2.621283203499869,3.143467102714095
0.01587956832154236,2.6028975242033634,3.312426430892098
0.01649032094929399,2.584749034101731,3.4793582932156832
0.017101073577045618,2.566863629430402,3.643978430355406
0.01771182620479725,2.549263199208045,3.8060391669013534
0.018322578832548876,2.531966009577416,3.965326575232306
0.018933331460300507,2.5149870660857183,4.121657736161281
0.019544084088052135,2.498338451926784,4.274878121024594
0.020154836715803762,2.4820296412509686,4.424859111126166
0.020765589343555393,2.466067787464574,4.57149566359223
0.02137634197130702,2.4504579870370473,4.714704127429491
0.021987094599058652,2.435203519754164,4.854420209631971
0.02259784722681028,2.4203060666357126,4.990597088298593
0.02320859985456191,2.405765906908097,5.123203667692255
0.023819352482313542,2.3915820955116587,5.252222968809476
0.02443010511006517,2.3777526226503136,5.377650648186915
0.025040857737816797,2.3642745568741197,5.499493637223049
0.025651610365568428,2.3511441731369374,5.617768894141051
0.026262362993320056,2.338357067201773,5.732502260781085
0.026873115621071687,2.3259082576835803,5.843727416625275
0.027483868248823314,2.3137922769292865,5.951484922775466
0.028094620876574942,2.3020032518418843,6.055821348986672
0.028705373504326573,2.290534975663057,6.156788477278508
0.0293161261320782,2.2793809716389717,6.254442576080455
0.029926878759829835,2.2685345494081925,6.348843739301533
0.030537631387581463,2.2579888548702005,6.440055285137553
0.03114838401533309,2.247736914218121,6.5281432098338765
0.03175913664308472,2.2377716727502706,6.613175692002957
0.03236988927083635,2.2280860290120965,6.695222643452139
0.03298064189858798,2.2186728647627034,6.7743553028061
0.03359139452633961,2.209525071208327,6.850645868510842
0.034202147154091235,2.2006355718984114,6.92416716808295
0.03481289978184286,2.191997342638028,6.9949923607198246
0.0354236524095945,2.1836034287328414,7.06319467061605
0.036034405037346125,2.1754469598493813,7.128847148538512
0.03664515766509775,2.167521162743475,7.192022459403112
0.03725591029284938,2.1598193720831427,7.252792693766061
0.037866662920601014,2.1523350395686056,7.311229201299889
0.038477415548352635,2.1450617415310678,7.367402444466317
0.03908816817610427,2.1379931851732183,7.421381870727744
0.039698920803855904,2.1311232135978018,7.473235801758873
0.040309673431607525,2.1244458097558323,7.5230313382284235
0.04092042605935916,2.1179550994328253,7.5708342788231935
0.04153117868711079,2.1116453533797226,7.6167090522785355
0.04214193131486242,2.1055109886846695,7.66071866126741
0.04275268394261404,2.0995465694724116,7.702924637079684
0.04336343657036568,2.0937468070097003,7.7433870040992145
0.043974189198117304,2.0881065592875165,7.782164253156857
0.04458494182586893,2.0826208301441262,7.819313322902806
0.04519569445362056,2.0772847679868645,7.854889588404056
0.045806447081372194,2.072093664165004,7.888946856231264
0.04641719970912382,2.067042951041009,7.921537365353001
0.04702795233687545,2.0621281998029932,7.95271179320798
0.047638704964627084,2.0573451180570035,7.982519266373525
0.048249457592378704,2.0526895472340048,8.011007375293806
0.04886021022013034,2.0481574598430488,8.03822219257486
0.049470962847881966,2.043744956598898,8.064208294392788
0.050081715475633594,2.0394482634496023,8.089008784599347
0.05069246810338522,2.035263728526849,8.112665321144485
0.051303220731136856,2.0311878190395407,8.135218144467776
0.05191397335888848,2.027217118128892,8.156706107542059
0.05252472598664011,2.0233483217012713,8.177166707280712
0.053135478614391746,2.0195782352532703,8.196636117046696
0.05374623124214337,2.015903770701717,8.215149220026516
0.054356983869895,2.0123219432299146,8.232739643255035
0.05496773649764663,2.0088298681599186,8.249439792097602
0.05557848912539826,2.0054247578594344,8.265280885017543
0.056189241753149884,2.0021039186907497,8.2802929884724
0.05679999438090152,1.998864748008049,8.294505051801439
0.057410747008653146,1.9957047312085323,8.307944941981098
0.05802149963640477,1.9926214388418428,8.320639478138846
0.0586322522641564,1.9896125237815974,8.332614465729716
0.059243004891908035,1.9866757184620132,8.34389473029113
0.05985375751965967,1.9838088321820817,8.354504150701837
0.06046451014741129,1.9810097484790985,8.364465691882017
0.061075262775162925,1.978276422572874,8.373801436878919
0.06168601540291455,1.9756068788814936,8.38253261829159
0.06229676803066618,1.9729992086090982,8.390679648995908
0.0629075206584178,1.9704515674057492,8.398262152136216
0.06351827328616944,1.967962173099207,8.405298990358045
0.06412902591392107,1.9655293034980938,8.411808294260481
0.0647397785416727,1.96315129426572,8.41780749005196
0.06535053116942433,1.9608265368636237,8.423313326398087
0.06596128379717596,1.9585534765637043,8.428341900454118
0.0665720364249276,1.9563306105276657,8.432908683077772
0.06718278905267921,1.9541564859523732,8.437028543221997
0.06779354168043085,1.952029698279612,8.440715771510147
0.06840429430818247,1.9499488894686414,8.44398410299783
0.06901504693593409,1.947912746329912,8.446846739129938
0.06962579956368573,1.945919998918192,8.449316368900766
0.07023655219143736,1.9439694189833843,8.451405189229614
0.070847304819189,1.942059818477252,8.453124924564392
0.07145805744694061,1.9401900481142682,8.454486845727642
0.07206881007469225,1.938358995984789,8.455501788020731
0.07267956270244387,1.936565586218796,8.456180168603197
0.0732903153301955,1.9348087776984184,8.456532003165087
0.07390106795794714,1.9330875628175144,8.456566921911215
0.07451182058569876,1.9314009662865714,8.45629418487632
0.0751225732134504,1.9297480439812718,8.455722696592433
0.07573332584120203,1.9281278818330554,8.454861020128085
0.07634407846895366,1.926539594760092,8.453717390521257
0.07695483109670527,1.9249823256371015,8.452299727627578
0.0775655837244569,1.9234552443024926,8.450615648405583
0.07817633635220854,1.9219575466013892,8.448672478661214
0.07878708897996017,1.9204884534630997,8.446477264273685
0.07939784160771181,1.919047210011683,8.444036781925888
0.08000859423546343,1.9176330847082912,8.441357549360239
0.08061934686321505,1.9162453685240446,8.438445835184375
0.08123009949096668,1.9148833741422144,8.435307668246908
0.08184085211871832,1.913546435188573,8.431948846607147
0.08245160474646994,1.9122339054888,8.42837494611993
0.08306235737422157,1.9109451583518995,8.424591328657266
0.08367311000197321,1.9096795858786215,8.420603149988732
0.08428386262972484,1.9084365982939404,8.416415367341509
0.08489461525747646,1.9072156233026767,8.412032746660639
0.08550536788522808,1.9060161054674183,8.407459869590452
0.08611612051297972,1.90483750560792,8.40270114019667
0.08672687314073135,1.9036793002212065,8.397760791448379
0.08733762576848299,1.9025409809216713,8.39264289147966
0.08794837839623461,1.9014220539004698,8.387351349647844
0.08855913102398623,1.90032203940357,8.381889922407858
0.08916988365173786,1.8992404712278437,8.376262219017843
0.0897806362794895,1.8981768962346397,8.370471707094111
0.09039138890724112,1.8971308738802735,8.364521718029899
0.09100214153499275,1.8961019757629634,8.35841545229381
0.09161289416274439,1.8950897851856974,8.352155984621417
0.09222364679049602,1.8940938967346115,8.345746269113992
0.09283439941824764,1.8931139158724364,8.339189144256466
0.09344515204599926,1.892149458546641,8.332487337867013
0.0940559046737509,1.8912001508118623,8.325643471988137
0.09466665730150253,1.8902656284663044,8.31866006773032
0.09527740992925417,1.8893455367017493,8.311539550077002
0.09588816255700579,1.8884395297668757,8.304284252658432
0.09649891518475741,1.8875472706435807,8.296896422502783
0.09710966781250904,1.8866684307360173,8.289378224769887
0.09772042044026068,1.8858026895720832,8.281731747473824
0.09833117306801231,1.8849497345170891,8.273959006198064
0.09894192569576393,1.8841092604993637,8.26606194880733
0.09955267832351557,1.8832809697475426,8.25804246015867
0.10016343095126719,1.882464571539312,8.249902366812972
0.10077418357901882,1.8816597819613732,8.2416434417484
0.10138493620677044,1.8808663236803957,8.233267409074985
0.10199568883452208,1.8800839257247495,8.22477594875013
0.10260644146227371,1.8793123232767677,8.216170701292086
0.10321719409002535,1.8785512574753485,8.207453272489989
0.10382794671777695,1.877800475228652,8.198625238105935
0.10443869934552859,1.8770597290366762,8.18968814856526
0.10504945197328022,1.8763287768234929,8.180643533630159
0.10566020460103186,1.8756073817789043,8.171492907050546
0.10627095722878349,1.8748953122093002,8.162237771185977
0.10688170985653511,1.87419234139747,8.152879621591833
0.10749246248428675,1.8734982474711417,8.143419951561734
0.10810321511203837,1.8728128132799928,8.133860256618497
0.10871396773979,1.8721358262808918,8.124202038944794
0.10932472036754162,1.8714670784311083,8.114446811744694
0.10993547299529326,1.8708063660892362,8.104596103526664
0.11054622562304489,1.870153489923562,8.094651462297824
0.11115697825079653,1.8695082548276027,8.084614459660667
0.11176773087854816,1.8688704698425445,8.074486694800802
0.11237848350629977,1.8682399480862852,8.06426979835591
0.1129892361340514,1.8676165066888084,8.053965436156004
0.11359998876180304,1.86699996673358,8.04357531282357
0.11421074138955467,1.8663901532046752,8.033101175223878
0.11482149401730629,1.8657868949393397,8.022544815754895
0.11543224664505793,1.865190024585669,8.0119080754665
0.11604299927280955,1.8645993785650938,8.001192846999158
0.11665375190056118,1.8640147970393737,7.990401077332317
0.1172645045283128,1.8634361238817638,7.97953477033252
0.11787525715606444,1.862863206652054,7.968595989093065
0.11848600978381607,1.8622958965751526,7.957586858055522
0.1190967624115677,1.8617340485228993,7.946509564905614
0.11970751503931934,1.8611775209987913,7.935366362234769
0.12031826766707095,1.8606261761253,7.9241595689613495
0.12092902029482258,1.8600798796334665,7.9128915715033905
0.12153977292257422,1.8595385008544614,7.901564824698031
0.12215052555032585,1.859001912712802,7.890181852461268
0.12276127817807747,1.8584699917209087,7.878745248184005
0.1233720308058291,1.857942617974719,7.867257674859514
0.12398278343358073,1.8574196751500407,7.855721864939669
0.12459353606133236,1.8569010504993648,7.844140619917026
0.125204288689084,1.8563866348488578,7.832516809630487
0.1258150413168356,1.855876322595241,7.820853371294515
0.12642579394458725,1.8553700117023026,7.809153308250346
0.12703654657233887,1.8548676036967722,7.797419688440541
0.12764729920009052,1.8543690036633071,7.785655642607967
0.12825805182784214,1.8538741202383493,7.7738643622212145
0.12886880445559376,1.8533828656026177,7.762049097129234
0.1294795570833454,1.8528951554720157,7.750213152949425
0.13009030971109703,1.8524109090867358,7.738359888193082
0.13070106233884865,1.851930049198369,7.726492711133647
0.13131181496660027,1.8514525020548214,7.714615076424327
0.13192256759435192,1.850978197382867,7.702730481471072
0.13253332022210354,1.8505070683681673,7.6908424625693925
0.1331440728498552,1.8500390516326042,7.678954590812428
0.13375482547760678,1.8495740872087907,7.667070467780128
0.13436557810535843,1.8491121185116246,7.65519372101873
0.13497633073311005,1.8486530923067748,7.6433279993212375
0.1355870833608617,1.8481969586760005,7.631476967819625
0.13619783598861332,1.8477436709792068,7.619644302900733
0.13680858861636494,1.8472931858131683,7.6078336869578855
0.13741934124411656,1.8468454629668574,7.5960488029912
0.13803009387186818,1.8464004653733228,7.584293329069693
0.13864084649961983,1.8459581590580885,7.572570932669401
0.13925159912737145,1.8455185130840452,7.560885264901003
0.1398623517551231,1.8450814994928275,7.549239954642924
0.14047310438287472,1.8446470932426784,7.537638602593826
0.14108385701062634,1.8442152721428136,7.526084775260577
0.141694609638378,1.8437860167843152,7.514581998897288
0.1423053622661296,1.8433593104676051,7.503133753411953
0.14291611489388123,1.8429351391265238,7.491743466255851
0.14352686752163288,1.8425134912491143,7.4804145063138545
0.1441376201493845,1.8420943577951554,7.469150177810843
0.14474837277713615,1.841677732110553,7.457953714251895
0.14535912540488774,1.841263609838676,7.446828272412972
0.14596987803263936,1.8408519888287518,7.435776926398807
0.146580630660391,1.8404428690414378,7.4248026617852
0.14719138328814263,1.840036252451705,7.413908369862295
0.14780213591589428,1.8396321429491627,7.403096841995951
0.1484128885436459,1.8392305462359864,7.392370764123663
0.14902364117139752,1.838831469722594,7.381732711401617
0.14963439379914917,1.8384349224212515,7.371185143018985
0.1502451464269008,1.8380409148377714,7.360730397195478
0.15085589905465244,1.8376494588614904,7.35037068637816
0.15146665168240406,1.8372605676537235,7.340108092652385
0.15207740431015568,1.8368742555348783,7.329944563382184
0.15268815693790733,1.8364905378704495,7.3198819070941115
0.15329890956565892,1.836109430956089,7.309921789619174
0.15390966219341054,1.8357309519019755,7.300065730505805
0.1545204148211622,1.835355118516699,7.290315099717223
0.1551311674489138,1.8349819491908865,7.280671114624668
0.15574192007666546,1.8346114627807977,7.271134837309436
0.15635267270441708,1.834243678492118,7.261707172183184
0.1569634253321687,1.8338786157641886,7.252388863937969
0.15757417795992035,1.8335162941549037,7.243180495834647
0.15818493058767197,1.8331567332265144,7.2340824883384665
0.15879568321542362,1.83279995243258,7.2250950981097235
0.15940643584317524,1.8324459710062975,7.2162184173562895
0.16001718847092686,1.8320948078504546,7.207452373554004
0.1606279410986785,1.8317464814292401,7.198796729539764
0.1612386937264301,1.8314010096621411,7.190251083981804
0.16184944635418172,1.8310584098201688,7.181814872229734
0.16246019898193337,1.8307186984246298,7.173487367546636
0.163070951609685,1.8303818911486816,7.165267682724367
0.16368170423743664,1.8300480027218766,7.157154772081424
0.16429245686518826,1.8297170468379271,7.149147433843006
0.16490320949293988,1.8293890360658853,7.1412443129003655
0.16551396212069153,1.8290639817649539,7.133443903946569
0.16612471474844315,1.8287418940031095,7.125744554984076
0.1667354673761948,1.8284227814797414,7.11814447119857
0.16734622000394642,1.8281066514524755,7.110641719192387
0.16795697263169804,1.8277935096683533,7.103234231570042
0.16856772525944969,1.8274833602995333,7.095919811866853
0.16917847788720128,1.82717620588366,7.088696139810537
0.16978923051495293,1.826872047269041,7.081560776905406
0.17039998314270455,1.8265708835647632,7.074511172326587
0.17101073577045617,1.8262727120958633,7.067544669111589
0.17162148839820782,1.825977528363655,7.060658510635103
0.17223224102595944,1.8256853260113073,7.053849847351934
0.17284299365371106,1.8253960967947527,7.0471157437924035
0.1734537462814627,1.8251098305589903,7.040453185793433
0.17406449890921433,1.8248265152198329,7.033859087947239
0.17467525153696598,1.824546136751139,7.027330301249939
0.1752860041647176,1.8242686791775535,7.020863620930331
0.17589675679246922,1.82399412457276,7.014455794438977
0.17650750942022086,1.8237224530632483,7.008103529577655
0.17711826204797246,1.8234536428375647,7.001803502747339
0.1777290146757241,1.823187670161025,6.9955523672933735
0.17833976730347573,1.8229245093958257,6.989346761926289
0.17895051993122735,1.8226641330264985,6.983183319194398
0.179561272558979,1.822406511690625,6.977058673987277
0.18017202518673062,1.8221516142147163,6.970969472045319
0.18078277781448224,1.821899407655157,6.964912378452988
0.18139353044223389,1.8216498573440802,6.958884086092685
0.1820042830699855,1.8214029269400516,6.952881324034841
0.18261503569773715,1.8211585784833986,6.946900865841784
0.18322578832548878,1.820916772456036,6.940939537761651
0.1838365409532404,1.8206774678456075,6.934994226789724
0.18444729358099204,1.8204406222137546,6.929061888573632
0.18505804620874364,1.8202061917683188,6.923139555140785
0.18566879883649529,1.8199741314392677,6.917224342425507
0.1862795514642469,1.8197443949581218,6.9113134575742325
0.18689030409199853,1.8195169349406588,6.905404206008455
0.18750105671975018,1.8192917029726507,6.899493998223772
0.1881118093475018,1.8190686496983937,6.893580356306622
0.18872256197525342,1.81884772491177,6.887660920149135
0.18933331460300507,1.8186288776495865,6.8817334533440855
0.18994406723075669,1.818412056286922,6.875795848742497
0.19055481985850833,1.8181972086342069,6.86984613365839
0.19116557248625995,1.8179842820357632,6.863882474704377
0.19177632511401158,1.8177732234695223,6.857903182244737
0.19238707774176322,1.81756397964764,6.8519067144523325
0.19299783036951482,1.8173564971177196,6.845891680957886
0.19360858299726647,1.8171507223643646,6.839856846080176
0.19421933562501809,1.8169466019107638,6.833801131628511
0.1948300882527697,1.8167440824200396,6.827723619268089
0.19544084088052135,1.8165431107960595,6.821623552442449
0.19605159350827298,1.8163436342834396,6.815500337846454
0.19666234613602462,1.8161456005664667,6.809353546445729
0.19727309876377624,1.8159489578666492,6.803182914039859
0.19788385139152787,1.8157536550386475,6.796988341367287
0.1984946040192795,1.815559641664306,6.790769893751823
0.19910535664703113,1.8153668681445427,6.784527800292088
0.19971610927478275,1.8151752857888372,6.778262452596157
0.20032686190253438,1.814984846902086,6.771974403064926
0.200937614530286,1.8147955048685847,6.765664362730694
0.20154836715803764,1.8146072142329206,6.759333198655269
0.20215911978578927,1.8144199307775608,6.7529819308980485
0.20276987241354089,1.814233611596935,6.746611729060911
0.20338062504129253,1.81404821516782,6.740223908422061
0.20399137766904415,1.8138637014158512,6.733819925669058
0.2046021302967958,1.81368003177799,6.727401374244982
0.20521288292454742,1.813497169260796,6.720969979320966
0.20582363555229904,1.8133150784943637,6.714527592410422
0.2064343881800507,1.8131337257817912,6.708076185641148
0.2070451408078023,1.8129530791440738,6.701617845702017
0.2076558934355539,1.8127731083603158,6.69515476748321
0.20826664606330555,1.8125937850031812,6.688689247427725
0.20887739869105718,1.8124150824695064,6.682223676615096
0.20948815131880882,1.8122369760060195,6.675760533597291
0.21009890394656044,1.8120594427301275,6.669302377007916
0.21070965657431207,1.8118824616457367,6.662851837967328
0.2113204092020637,1.8117060136541,6.656411612305203
0.21193116182981533,1.811530081559683,6.649984452624412
0.21254191445756698,1.8113546500710793,6.643573160228873
0.2131526670853186,1.811179705796987,6.637180576939606
0.21376341971307022,1.8110052372373031,6.630809576822906
0.21437417234082187,1.810831234769389,6.624463057854491
0.2149849249685735,1.8106576906295777,6.618143933544689
