frequency,refractiveIndex,absorption
0.0006107526277516292,2.5402845970788293,0.0026460314821499086
0.0012215052555032584,2.539803804189602,0.010576103129392066
0.0018322578832548875,2.539004108877689,0.023766210938499698
0.002443010511006517,2.537887935467662,0.042176561797564564
0.003053763138758146,2.536458648426974,0.06575189005109025
0.003664515766509775,2.534720523410702,0.09442189325575367
0.004275268394261404,2.532678710914091,0.12810177995405506
0.004886021022013034,2.5303391931568955,0.16669292060547372
0.005496773649764663,2.527708734923446,0.21008359137586535
0.006107526277516292,2.5247948291620554,0.25814979932779036
0.006718278905267922,2.5216056382050738,0.3107561766976467
0.00732903153301955,2.5181499315064557,0.3677569313984126
0.00793978416077118,2.514437020806842,0.4289968406466994
0.008550536788522809,2.5104766936285876,0.4943122746659375
0.009161289416274438,2.506279145976088,0.5635322377416034
0.009772042044026067,2.5018549150727063,0.6364794144690765
0.010382794671777697,2.497214812907277,0.7129712098050535
0.010993547299529326,2.492369861293165,0.7928207724700534
0.011604299927280955,2.4873312290644876,0.8758379923127864
0.012215052555032585,2.482110171950085,0.9618304633961695
0.012825805182784214,2.4767179755790525,1.0506044057624724
0.013436557810535843,2.4711659019844805,1.141965540045218
0.014047310438287471,2.46546513988707,1.2357199102877414
0.0146580630660391,2.4596267589588225,1.3316746514759663
0.015268815693790731,2.4536616681912258,1.429638699374196
0.01587956832154236,2.4475805784227695,1.5294234412512588
0.01649032094929399,2.441393969018412,1.6308433069878279
0.017101073577045618,2.435112058639133,1.7337163008573018
0.01771182620479725,2.428744779992986,1.837864474968093
0.018322578832548876,2.4223017584203057,1.9431143459452713
0.018933331460300507,2.4157922941342718,2.0492972569161068
0.019544084088052135,2.4092253479138295,2.1562496872530255
0.020154836715803762,2.402609530028231,2.2638135128251577
0.020765589343555393,2.3959530921605876,2.371836219723648
0.02137634197130702,2.389263922091213,2.480171074565614
0.021987094599058652,2.382549540899521,2.5886772545555305
0.02259784722681028,2.37581710244496,2.697219940499664
0.02320859985456191,2.369073394892509,2.8056703759383708
0.023819352482313542,2.362324844055932,2.9139058954910486
0.02443010511006517,2.3555775183415313,3.021809925405165
0.025040857737816797,2.3488371350864155,3.1292719591743383
0.025651610365568428,2.3421090680976104,3.2361875109441534
0.026262362993320056,2.335398356211212,3.342458049265426
0.026873115621071687,2.3287097127042897,3.4479909135880713
0.027483868248823314,2.3220475354055115,3.5526992157168062
0.028094620876574942,2.315415917363959,3.656501728279152
0.028705373504326573,2.3088186579484087,3.7593227620858904
0.0293161261320782,2.3022592742619774,3.8610920340995833
0.029926878759829835,2.295741012768897,3.961744527567387
0.030537631387581463,2.2892668610415243,4.061220345723924
0.03114838401533309,2.2828395595462085,4.1594645603261755
0.03175913664308472,2.276461613396575,4.2564270561496675
0.03236988927083635,2.270135304011806,4.352062372450093
0.03298064189858798,2.263862700625953,4.446329542280435
0.03359139452633961,2.2576456716019373,4.539191930448465
0.034202147154091235,2.251485895510877,4.630617070803295
0.03481289978184286,2.245384871943676,4.720576503453148
0.0354236524095945,2.2393439320275084,4.809045612438231
0.036034405037346125,2.233364248624911,4.896003464312035
0.03664515766509775,2.2274468461977763,4.981432648022606
0.03725591029284938,2.2215926103225354,5.065319116428784
0.037866662920601014,2.2158022968464937,5.14765202973853
0.038477415548352635,2.2100765406783354,5.228423601112671
0.03908816817610427,2.2044158642087077,5.307628944640347
0.039698920803855904,2.1988206853591437,5.385265925859669
0.040309673431607525,2.1932913252597595,5.461335014968973
0.04092042605935916,2.187828015557943,5.535839142849989
0.04153117868711079,2.1824309053619197,5.608783560003403
0.04214193131486242,2.1771000678243566,5.680175698480093
0.04275268394261404,2.171835506372395,5.750025036876061
0.04336343657036568,2.166637160591458,5.818342968447208
0.043974189198117304,2.1615049117709866,5.885142672389083
0.04458494182586893,2.156438588121024,5.950438988318828
0.04519569445362056,2.1514379696690344,6.014248293988909
0.045806447081372194,2.1465027928468663,6.076588386256283
0.04641719970912382,2.1416327547781218,6.137478365326266
0.04702795233687545,2.1368275172764566,6.196938522285861
0.047638704964627084,2.132086710565554,6.2549902299385005
0.048249457592378704,2.127409936731634,6.311655836948318
0.04886021022013034,2.1227967729194805,6.366958565301173
0.049470962847881966,2.1182467742829507,6.420922411086032
0.050081715475633594,2.113759476700955,6.473572048599195
0.05069246810338522,2.1093343992698173,6.524932737772114
0.051303220731136856,2.1049710465828495,6.57503023492091
0.05191397335888848,2.1006689108078556,6.623890706815103
0.05252472598664011,2.0964274735731117,6.671540648060434
0.053135478614391746,2.092246207672235,6.718006801789129
0.05374623124214337,2.0881245785980975,6.763316083648445
0.054356983869895,2.0840620459158345,6.807495509077777
0.05496773649764663,2.0800580644846156,6.850572123859968
0.05557848912539826,2.0761120855377673,6.892572937933014
0.056189241753149884,2.072223557630449,6.933524862443374
0.05679999438090152,2.068391927463887,6.97345465002133
0.057410747008653146,2.0646166405948767,7.01238883825568
0.05802149963640477,2.060897142038961,7.05035369634201
0.0586322522641564,2.057232876775439,7.087375174877051
0.059243004891908035,2.053623290162011,7.12347885876704
0.05985375751965967,2.0500678282666347,7.1586899232182155
0.06046451014741129,2.04656593812378,7.193033092770765
0.061075262775162925,2.0431170679220525,7.226532603338675
0.06168601540291455,2.0397206671297803,7.259212167212253
0.06229676803066618,2.0363761865649033,7.291094940978776
0.0629075206584178,2.0330830784151797,7.322203496313964
0.06351827328616944,2.0298407962144314,7.35255979359324
0.06412902591392107,2.0266487947802543,7.38218515827098
0.0647397785416727,2.0235065301183197,7.411100259971471
0.06535053116942433,2.020413459298134,7.4393250942350555
0.06596128379717596,2.017369040304805,7.466878966858334
0.0665720364249276,2.0143727318711164,7.493780480767667
0.06718278905267921,2.011423993293942,7.520047525360995
0.06779354168043085,2.008522284238751,7.54569726825236
0.06840429430818247,2.005667064535718,7.57074614935137
0.06901504693593409,2.002857793970735,7.595209877208608
0.06962579956368573,2.000093932074302,7.619103427555505
0.07023655219143736,1.997374937911136,7.6424410439663415
0.070847304819189,1.9947002698730754,7.665236240569887
0.07145805744694061,1.9920693854776315,7.687501806734279
0.07206881007469225,1.9894817411743664,7.709249813651104
0.07267956270244387,1.986936792161062,7.730491622740208
0.0732903153301955,1.9844339922114616,7.751237895799287
0.07390106795794714,1.9819727935161942,7.771498606818798
0.07451182058569876,1.9795526465383118,7.791283055383765
0.0751225732134504,1.977172999884707,7.810599881582715
0.07573332584120203,1.9748333001945404,7.829457082344056
0.07634407846895366,1.9725329920456305,7.847862029119119
0.07695483109670527,1.970271517879652,7.86582148683131
0.0775655837244569,1.9680483179468127,7.883341634010294
0.07817633635220854,1.9658628302706112,7.900428084030106
0.07878708897996017,1.9637144906330835,7.917085907369593
0.07939784160771181,1.9616027325809071,7.933319654814354
0.08000859423546343,1.9595269874525467,7.949133381517382
0.08061934686321505,1.9574866844266015,7.964530671839007
0.08123009949096668,1.9554812505913344,7.979514664882939
0.08184085211871832,1.9535101110353366,7.994088080648174
0.08245160474646994,1.9515726889591434,8.008253246715963
0.08306235737422157,1.94966840580757,8.022012125390722
0.08367311000197321,1.9477966814224141,8.0353663412146
0.08428386262972484,1.9459569342151364,8.048317208776519
0.08489461525747646,1.9441485813590162,8.060865760735442
0.08550536788522808,1.9423710390002573,8.073012775979702
0.08611612051297972,1.9406237224873855,8.084758807844475
0.08672687314073135,1.9389060466182908,8.096104212309337
0.08733762576848299,1.937217425904144,8.107049176100437
0.08794837839623461,1.935557274849402,8.117593744621463
0.08855913102398623,1.9339250082470334,8.1277378496392
0.08916988365173786,1.9323200414880708,8.137481336650884
0.0897806362794895,1.9307417908845224,8.146823991861302
0.09039138890724112,1.9291896740046484,8.155765568700192
0.09100214153499275,1.9276631100195663,8.164305813811096
0.09161289416274439,1.926161520060095,8.172444492445111
0.09222364679049602,1.9246843275827388,8.180181413195337
0.09283439941824764,1.9232309587436407,8.187516452008628
0.09344515204599926,1.9218008427793623,8.19444957541568
0.0940559046737509,1.9203934123932702,8.200980862920977
0.09466665730150253,1.9190081041463156,8.207110528497092
0.09527740992925417,1.9176443588509844,8.212838941132542
0.09588816255700579,1.9163016219671516,8.218166644382155
0.09649891518475741,1.9149793439986018,8.223094374874767
0.09710966781250904,1.913676980888949,8.227623079734995
0.09772042044026068,1.9123939944156911,8.23175393287914
0.09833117306801231,1.9111298525811604,8.235488350150257
0.09894192569576393,1.9098840299991067,8.238828003258641
0.09955267832351557,1.9086560082756974,8.241774832500692
0.10016343095126719,1.9074452763837,8.244331058230092
0.10077418357901882,1.9062513310286826,8.246499191062526
0.10138493620677044,1.9050736770060388,8.248282040795374
0.10199568883452208,1.9039118275477294,8.249682724032425
0.10260644146227371,1.9027653046576147,8.250704670503387
0.10321719409002535,1.9016336394343576,8.25135162807614
0.10382794671777695,1.9005163723808378,8.25162766646114
0.10443869934552859,1.8994130536991498,8.251537179613512
0.10504945197328022,1.8983232435702484,8.251084886841666
0.10566020460103186,1.89724651241739,8.250275832635317
0.10627095722878349,1.8961824411525634,8.24911538523146
0.10688170985653511,1.8951306214051782,8.247609233938864
0.10749246248428675,1.8940906557323276,8.245763385247418
0.10810321511203837,1.8930621578100253,8.24358415775141
0.10871396773979,1.8920447526048723,8.241078175920654
0.10932472036754162,1.8910380765256802,8.238252362755263
0.10993547299529326,1.8900417775546716,8.235113931366365
0.11054622562304489,1.8890555153579132,8.231670375523668
0.11115697825079653,1.8880789613747506,8.227929459219377
0.11176773087854816,1.887111798886067,8.223899205296595
0.11237848350629977,1.886153723061255,8.219587883193764
0.1129892361340514,1.8852044409838984,8.215003995861785
0.11359998876180304,1.8842636716561947,8.210156265908997
0.11421074138955467,1.8833311459822497,8.205053621032713
0.11482149401730629,1.882406606730437,8.199705178798922
0.11543224664505793,1.881489808475081,8.194120230830297
0.11604299927280955,1.8805805175177992,8.188308226466527
0.11665375190056118,1.8796785117888997,8.18227875596011
0.1172645045283128,1.8787835807292854,8.176041533271743
0.11787525715606444,1.8778955251533929,8.169606378530423
0.11848600978381607,1.8770141570937366,8.16298320022245
0.1190967624115677,1.8761392996276849,8.156181977173391
0.11970751503931934,1.8752707866871456,8.149212740387979
0.12031826766707095,1.8744084628518947,8.142085554810292
0.12092902029482258,1.8735521831272963,8.134810501066406
0.12153977292257422,1.8727018127072443,8.12739765725183
0.12215052555032585,1.871857226723128,8.119857080821248
0.12276127817807747,1.8710183099797348,8.11219879064148
0.1233720308058291,1.8701849566789424,8.104432749261024
0.12398278343358073,1.8693570701321485,8.096568845453344
0.12459353606133236,1.868534562462352,8.088616877083817
0.125204288689084,1.8677173542968477,8.080586534351974
0.1258150413168356,1.8669053744514774,8.072487383455515
0.12642579394458725,1.866098559607416,8.064328850721898
0.12703654657233887,1.8652968539814414,8.056120207249354
0.12764729920009052,1.8645002089906653,8.04787055409757
0.12825805182784214,1.863708582912671,8.039588808064082
0.12886880445559376,1.8629219405420119,8.031283688081801
0.1294795570833454,1.8621402528440074,8.022963702267504
0.13009030971109703,1.8613634966067534,8.01463713565032
0.13070106233884865,1.8605916540922538,8.006312038605337
0.13131181496660027,1.8598247126875473,7.997996216014673
0.13192256759435192,1.8590626645567065,7.989697217175815
0.13253332022210354,1.8583055062945144,7.981422326473179
0.1331440728498552,1.857553238582651,7.97317855482697
0.13375482547760678,1.856805865849148,7.964972631930646
0.13436557810535843,1.8560633959318642,7.956810999283903
0.13497633073311005,1.8553258397466876,7.948699804027714
0.1355870833608617,1.8545932109611547,7.940644893583715
0.13619783598861332,1.853865525674112,7.932651811097616
0.13680858861636494,1.8531428021020424,7.9247257916854
0.13741934124411656,1.852425060272621,7.916871759476527
0.13803009387186818,1.8517123217260296,7.909094325447412
0.13864084649961983,1.851004609224539,7.901397786036775
0.13925159912737145,1.8503019464708004,7.893786122529461
0.1398623517551231,1.8496043578352854,7.886263001198608
0.14047310438287472,1.8489118680932422,7.878831774186778
0.14108385701062634,1.8482245021715213,7.871495481113162
0.141694609638378,1.847542284905582,7.8642568513849165
0.1423053622661296,1.8468652408069517,7.8571183071943835
0.14291611489388123,1.8461933938413635,7.850081967178847
0.14352686752163288,1.8455267672177895,7.843149650721277
0.1441376201493845,1.844865383188533,7.83632288286645
0.14474837277713615,1.844209262860497,7.829602899827211
0.14535912540488774,1.8435584260177522,7.822990655054796
0.14596987803263936,1.842912890955458,7.816486825845224
0.146580630660391,1.842272674325172,7.810091820453421
0.14719138328814263,1.8416377909915655,7.803805785686393
0.14780213591589428,1.8410082539005168,7.797628614945541
0.1484128885436459,1.8403840739585284,7.791559956687494
0.14902364117139752,1.8397652599233982,7.785599223274008
0.14963439379914917,1.8391518183060431,7.779745600177886
0.1502451464269008,1.8385437532833364,7.773998055516155
0.15085589905465244,1.8379410666218232,7.768355349876713
0.15146665168240406,1.8373437576121348,7.762816046408392
0.15207740431015568,1.8367518230139026,7.757378521142416
0.15268815693790733,1.8361652570109674,7.752040973513691
0.15329890956565892,1.8355840511766497,7.746801437050686
0.15390966219341054,1.8350081944488172,7.741657790203
0.1545204148211622,1.8344376731145067,7.736607767275129
0.1551311674489138,1.8338724708037937,7.731648969437516
0.15574192007666546,1.8333125684926326,7.726778875782633
0.15635267270441708,1.8327579445143376,7.721994854399046
0.1569634253321687,1.8322085745794057,7.71729417343235
0.15757417795992035,1.8316644318033233,7.71267401210665
0.15818493058767197,1.8311254867420346,7.708131471677175
0.15879568321542362,1.8305917074347078,7.703663586288989
0.15940643584317524,1.8300630594534375,7.6992673337136734
0.16001718847092686,1.8295395059595276,7.694939645940852
0.1606279410986785,1.8290210077659692,7.690677419598995
0.1612386937264301,1.8285075234057417,7.686477526182082
0.16184944635418172,1.8279990092055614,7.682336822060823
0.16246019898193337,1.8274954193646775,7.678252158255784
0.163070951609685,1.8269967060383487,7.674220389953215
0.16368170423743664,1.8265028194255968,7.670238385743916
0.16429245686518826,1.8260137078608614,7.666303036566863
0.16490320949293988,1.8255293179091634,7.662411264341816
0.16551396212069153,1.8250495944643972,7.658560030273842
0.16612471474844315,1.8245744808503688,7.6547463428167095
0.1667354673761948,1.8241039189241988,7.6509672652807845
0.16734622000394642,1.8236378491817251,7.647219923074592
0.16795697263169804,1.8231762108645286,7.64350151056825
0.16856772525944969,1.8227189420682275,7.639809297570795
0.16917847788720128,1.822265979851683,7.636140635411765
0.16978923051495293,1.8218172603467642,7.6324929626216385
0.17039998314270455,1.8213727188683486,7.628863810204799
0.17101073577045617,1.8209322900242086,7.625250806501168
0.17162148839820782,1.8204959078244842,7.621651681633188
0.17223224102595944,1.8200635057904182,7.6180642715370634
0.17284299365371106,1.819635017062063,7.614486521577262
0.1734537462814627,1.8192103745046786,7.6109164897457795
0.17406449890921433,1.8187895108135288,7.607352349446883
0.17467525153696598,1.8183723586168383,7.603792391871942
0.1752860041647176,1.817958850576644,7.600235027968215
0.17589675679246922,1.8175489194873151,7.596678790005865
0.17650750942022086,1.8171424983715163,7.593122332752003
0.17711826204797246,1.8167395205734131,7.589564434256544
0.1777290146757241,1.8163399198489205,7.58600399626098
0.17833976730347573,1.8159436304528207,7.5824400442377655
0.17895051993122735,1.8155505872225899,7.578871727070883
0.179561272558979,1.8151607256587774,7.575298316389871
0.18017202518673062,1.8147739820018152,7.571719205567917
0.18078277781448224,1.8143902933051332,7.5681339083975026
0.18139353044223389,1.8140095975044763,7.564542057456871
0.1820042830699855,1.81363183348334,7.560943402180718
0.18261503569773715,1.8132569411344501,7.5573378066506995
0.18322578832548878,1.8128848614172253,7.553725247119883
0.1838365409532404,1.81251553641118,7.550105809286756
0.18444729358099204,1.8121489093652368,7.546479685334887
0.18505804620874364,1.8117849247429363,7.542847170754541
0.18566879883649529,1.8114235282635334,7.539208660961565
0.1862795514642469,1.8110646669389985,7.535564647731356
0.18689030409199853,1.8107082891069426,7.531915715464081
0.18750105671975018,1.8103543444595016,7.528262537297532
0.1881118093475018,1.810002784068226,7.524605871084447
0.18872256197525342,1.8096535604050408,7.520946555251937
0.18933331460300507,1.8093066273593335,7.517285504557904
0.18994406723075669,1.8089619402512578,7.513623705762113
0.19055481985850833,1.8086194558413413,7.509962213227474
0.19116557248625995,1.8082791323364875,7.506302144467671
0.19177632511401158,1.8079409293924873,7.502644675656322
0.19238707774176322,1.8076048081131468,7.498991037113271
0.19299783036951482,1.8072707310461555,7.4953425087827625
0.19360858299726647,1.8069386621758203,7.491700415716993
0.19421933562501809,1.8066085669127987,7.488066123580196
0.1948300882527697,1.8062804120809672,7.484441034184922
0.19544084088052135,1.805954165901574,7.480826581075306
0.19605159350827298,1.8056297979748077,7.477224225166914
0.19666234613602462,1.8053072792589493,7.473635450457083
0.19727309876377624,1.8049865820472435,7.470061759814901
0.19788385139152787,1.8046676799426542,7.466504670862157
0.1984946040192795,1.8043505478306483,7.4629657119536805
0.19910535664703113,1.8040351618501747,7.459446418267397
0.19971610927478275,1.803721499362984,7.455948328010704
0.20032686190253438,1.8034095389214493,7.452472978751698
0.200937614530286,1.8030992602350433,7.449021903881501
0.20154836715803764,1.8027906441356163,7.445596629213837
0.20215911978578927,1.8024836725416347,7.442198669726821
0.20276987241354089,1.8021783284215247,7.438829526452374
0.20338062504129253,1.8018745957562632,7.435490683516498
0.20399137766904415,1.801572459501359,7.432183605333213
0.2046021302967958,1.8012719055483668,7.428909733956084
0.20521288292454742,1.8009729206860592,7.425670486587701
0.20582363555229904,1.8006754925613926,7.422467253249361
0.2064343881800507,1.8003796096403903,7.419301394610935
0.2070451408078023,1.8000852611690588,7.416174239980992
0.2076558934355539,1.7997924371344556,7.4130870854572315
0.20826664606330555,1.7995011282260147,7.410041192234764
0.20887739869105718,1.7992113257972324,7.407037785071682
0.20948815131880882,1.7989230218278154,7.404078050909104
0.21009890394656044,1.798636208886371,7.401163137643186
0.21070965657431207,1.7983508800937409,7.3982941530459305
0.2113204092020637,1.7980670290870404,7.395472163830972
0.21193116182981533,1.7977846499844874,7.392698194860416
0.21254191445756698,1.797503737351083,7.3899732284889375
0.2131526670853186,1.7972242861652048,7.3872982040393556
0.21376341971307022,1.7969462917861652,7.384674017405825
0.21437417234082187,1.796669749922783,7.382101520778483
