frequency,refractiveIndex,absorption
0.0006107526277516292,2.540129675173511,0.0027635668951423048
0.0012215052555032584,2.5396345704934724,0.011045653403694186
0.0018322578832548875,2.5388111623991847,0.02482048856538853
0.002443010511006517,2.537662083499247,0.044045358087843885
0.003053763138758146,2.5361909858700487,0.06866095593832251
0.003664515766509775,2.5344025082267536,0.09859186797009918
0.004275268394261404,2.53230223475466,0.13374717929793728
0.004886021022013034,2.5298966463358514,0.17402119520537138
0.005496773649764663,2.52719306502218,0.21929426373297353
0.006107526277516292,2.5241995926964145,0.2694336867988909
0.006718278905267922,2.5209250449281724,0.32429470576349295
0.00732903153301955,2.5173788810685394,0.38372154677729425
0.00793978416077118,2.513571131638369,0.44754851103940674
0.008550536788522809,2.5095123240510975,0.5156010952246624
0.009161289416274438,2.505213407674204,0.5876971277811271
0.009772042044026067,2.5006856791766245,0.6636479075187403
0.010382794671777697,2.495940709036527,0.7432593318601971
0.010993547299529326,2.4909902699976567,0.8263330032585724
0.011604299927280955,2.4858462681673927,0.9126673035550268
0.012215052555032585,2.4805206773488067,1.0020584274052093
0.012825805182784214,2.475025477095906,1.0943013673007786
0.013436557810535843,2.4693725948787644,1.1891908441108041
0.014047310438287471,2.4635738526462587,1.2865221784324725
0.0146580630660391,2.4576409179803034,1.3860920993406924
0.015268815693790731,2.4515852599489425,1.4876994883387535
0.01587956832154236,2.445418109687304,1.5911460574198644
0.01649032094929399,2.4391504256661616,1.6962369611395867
0.017101073577045618,2.4327928635480496,1.8027813434662001
0.01771182620479725,2.42635575048052,1.9105928209169687
0.018322578832548876,2.4198490636350742,2.0194899041054644
0.018933331460300507,2.4132824127680714,2.129296360323521
0.019544084088052135,2.4066650265557006,2.239841520167488
0.020154836715803762,2.4000057424386227,2.350960531502918
0.020765589343555393,2.393312999701691,2.4624945642525593
0.02137634197130702,2.386594835510012,2.5742909696029916
0.021987094599058652,2.379858883623249,2.6862033972632005
0.02259784722681028,2.3731123755149124,2.7980918743881915
0.02320859985456191,2.3663621436315196,2.909822849708311
0.023819352482313542,2.359614626537383,3.021269206295035
0.02443010511006517,2.352875875703508,3.132310246249273
0.025040857737816797,2.346151563713457,3.2428316504328376
0.025651610365568428,2.3394469936741062,3.3527254161792697
0.026262362993320056,2.3327671096350415,3.461889775726517
0.026873115621071687,2.3261165078360726,3.5702290979131655
0.027483868248823314,2.319499448618175,3.677653775479608
0.028094620876574942,2.3129198688484767,3.784080100115889
0.028705373504326573,2.3063813947246996,3.8894301272035627
0.0293161261320782,2.299887354838605,3.993631532012808
0.029926878759829835,2.293440793391317,4.096617458937286
0.030537631387581463,2.2870444834658645,4.19832636518187
0.03114838401533309,2.280700940273912,4.2987018601606595
0.03175913664308472,2.2744124343043413,4.3976925417173005
0.03236988927083635,2.2681810043111525,4.495251830144988
0.03298064189858798,2.2620084700871415,4.5913378008604555
0.03359139452633961,2.2558964449778873,4.6859130164743705
0.034202147154091235,2.2498463480979387,4.77894435889945
0.03481289978184286,2.2438594162176435,4.870402862046404
0.0354236524095945,2.237936715294968,4.960263545577185
0.036034405037346125,2.2320791516318215,5.048505250111912
0.03664515766509775,2.226287482639133,5.135110474223689
0.03725591029284938,2.2205623271988966,5.220065213498104
0.037866662920601014,2.2149041756150867,5.303358801886645
0.038477415548352635,2.209313399148425,5.38498375554109
0.03908816817610427,2.20379025913276,5.464935619278949
0.039698920803855904,2.1983349156731613,5.543212815800561
0.040309673431607525,2.1929474359279006,5.619816497750793
0.04092042605935916,2.187627801978256,5.6947504026983635
0.04153117868711079,2.1823759182915787,5.76802071108554
0.04214193131486242,2.177191618784344,5.839635907188425
0.04275268394261404,2.1720746734930234,5.909606643114828
0.04336343657036568,2.167024794861461,5.977945605857366
0.043974189198117304,2.1620416436542786,6.044667387412771
0.04458494182586893,2.1571248345064156,6.109788357972781
0.04519569445362056,2.1522739411194003,6.173326542187309
0.045806447081372194,2.147488501115412,6.235301498499011
0.04641719970912382,2.1427680205604585,6.2957342015455495
0.04702795233687545,2.138111978168257,6.354646927625765
0.047638704964627084,2.1335198291965938,6.412063143225586
0.048249457592378704,2.128991009048013,6.468007396598916
0.04886021022013034,2.1245249365867624,6.522505212400192
0.049470962847881966,2.120121017183956,6.575582989365397
0.050081715475633594,2.1157786455028504,6.627267901039119
0.05069246810338522,2.1114972080360954,6.677587799546479
0.051303220731136856,2.107276085406709,6.726571122408369
0.05191397335888848,2.103114654444403,6.774246802400075
0.05252472598664011,2.099012290048758,6.820644180453556
0.053135478614391746,2.0949683668505257,6.865792921602744
0.05374623124214337,2.090982260682186,6.909722933972719
0.054356983869895,2.0870533498686816,6.952464290812212
0.05496773649764663,2.0831810163489495,6.994047155568521
0.05557848912539826,2.079364646638722,7.034501710003308
0.056189241753149884,2.0756036326447416,7.073858085346281
0.05679999438090152,2.0718973723403096,7.11214629648305
0.057410747008653146,2.068245270311757,7.149396179170621
0.05802149963640477,2.0646467381852003,7.185637330273775
0.0586322522641564,2.0611011949425864,7.220899051012159
0.059243004891908035,2.0576080671357806,7.2552102932067735
0.05985375751965967,2.054166789007095,7.288599608511229
0.06046451014741129,2.0507768025243815,7.321095100611863
0.061075262775162925,2.0474375573384633,7.352724380376987
0.06168601540291455,2.044148510670387,7.383514523933717
0.06229676803066618,2.0409091271356448,7.413492033647943
0.0629075206584178,2.0377188785121993,7.442682801980125
0.06351827328616944,2.034577243458826,7.471112078186647
0.06412902591392107,2.031483707189982,7.498804437834629
0.0647397785416727,2.028437761113072,7.525783755093592
0.06535053116942433,2.025438902433717,7.552073177767008
0.06596128379717596,2.022486633734286,7.577695105021954
0.0665720364249276,2.01958046253067,7.6026711677736385
0.06718278905267921,2.0167199008120127,7.627022211679777
0.06779354168043085,2.013904464567754,7.650768282694602
0.06840429430818247,2.0111336733061744,7.673928615133937
0.06901504693593409,2.008407049568253,7.696521622197362
0.06962579956368573,2.0057241184404537,7.718564888892131
0.07023655219143736,2.003084407069785,7.7400751673033295
0.070847304819189,2.0004874441842366,7.761068374149695
0.07145805744694061,1.9979327596214564,7.781559590565512
0.07206881007469225,1.9954198838683066,7.8015630640458165
0.07267956270244387,1.9929483476137355,7.821092212490807
0.0732903153301955,1.9905176813171612,7.840159630283969
0.07390106795794714,1.9881274147944141,7.8587770963372385
0.07451182058569876,1.9857770768230332,7.876955584034115
0.0751225732134504,1.9834661947686014,7.8947052730020015
0.07573332584120203,1.981194294233553,7.912035562642121
0.07634407846895366,1.978960898729801,7.928955087345901
0.07695483109670527,1.9767655293763169,7.945471733323621
0.0775655837244569,1.9746077046226607,7.96159265697245
0.07817633635220854,1.9724869399993514,7.977324304707985
0.07878708897996017,1.9704027478957633,7.992672434182899
0.07939784160771181,1.9683546373661884,8.007642136817166
0.08000859423546343,1.9663421139645063,8.022237861560509
0.08061934686321505,1.9643646796078371,8.036463439809143
0.08123009949096668,1.9624218324694127,8.0503221113973
0.08184085211871832,1.960513066900818,8.063816551583196
0.08245160474646994,1.9586378733836283,8.076948898948965
0.08306235737422157,1.9567957385103787,8.089720784131604
0.08367311000197321,1.9549861449947321,8.102133359304812
0.08428386262972484,1.9532085717105687,8.114187328326993
0.08489461525747646,1.9514624937596863,8.125882977472722
0.08550536788522808,1.9497473825677039,8.137220206664647
0.08611612051297972,1.9480627060076336,8.14819856112019
0.08672687314073135,1.9464079285505962,8.158817263329729
0.08733762576848299,1.9447825114429869,8.169075245281178
0.08794837839623461,1.9431859129093987,8.178971180845672
0.08855913102398623,1.9416175883804936,8.188503518240633
0.08916988365173786,1.9400769907449689,8.197670512484267
0.0897806362794895,1.9385635706246862,8.206470257758182
0.09039138890724112,1.9370767766719794,8.214900719593189
0.09100214153499275,1.9356160558880935,8.222959766795919
0.09161289416274439,1.9341808539616265,8.230645203032145
0.09222364679049602,1.9327706156258497,8.237954797986669
0.09283439941824764,1.9313847850336436,8.244886318017441
0.09344515204599926,1.9300228061488243,8.251437556226199
0.0940559046737509,1.9286841231525205,8.257606361866522
0.09466665730150253,1.9273681808632632,8.263390669013667
0.09527740992925417,1.9260744251693807,8.268788524422442
0.09588816255700579,1.9248023034722752,8.273798114500433
0.09649891518475741,1.9235512651391171,8.278417791327865
0.09710966781250904,1.9223207619634648,8.28264609765641
0.09772042044026068,1.9211102486322882,8.286481790823768
0.09833117306801231,1.9199191831978768,8.289923865522367
0.09894192569576393,1.9187470275530747,8.29297157536561
0.09955267832351557,1.9175932479082765,8.295624453196503
0.10016343095126719,1.9164573152686455,8.297882330089825
0.10077418357901882,1.9153387059099616,8.299745353000297
0.10138493620677044,1.9142369018515786,8.30121400101618
0.10199568883452208,1.9131513913249163,8.302289100179545
0.10260644146227371,1.9120816692359692,8.302971836840262
0.10321719409002535,1.9110272376203523,8.303263769516155
0.10382794671777695,1.9099876060893586,8.303166839234583
0.10443869934552859,1.9089622922656346,8.302683378337523
0.10504945197328022,1.9079508222070427,8.301816117736491
0.10566020460103186,1.906952730817355,8.300568192608372
0.10627095722878349,1.9059675622424712,8.298943146529021
0.10688170985653511,1.904994870250903,8.296944934046588
0.10749246248428675,1.9040342185973365,8.294577921701734
0.10810321511203837,1.9030851813681193,8.291846887505585
0.10871396773979,1.9021473433076315,8.288757018894989
0.10932472036754162,1.9012203001245298,8.285313909185065
0.10993547299529326,1.900303658776956,8.281523552548114
0.11054622562304489,1.8993970377358689,8.277392337549557
0.11115697825079653,1.8985000672257386,8.272927039278695
0.11176773087854816,1.8976123894419419,8.268134810115404
0.11237848350629977,1.896733658744256,8.263023169177648
0.1129892361340514,1.8958635418259693,8.257599990500847
0.11359998876180304,1.8950017178581864,8.251873490001886
0.11421074138955467,1.8941478786090138,8.245852211284728
0.11482149401730629,1.8933017285374028,8.239545010350023
0.11543224664505793,1.8924629848614984,8.232961039270602
0.11604299927280955,1.8916313776014544,8.226109728900566
0.11665375190056118,1.8908066495967568,8.219000770687781
0.1172645045283128,1.8899885564981687,8.211644097659551
0.11787525715606444,1.8891768667345226,8.204049864656657
0.11848600978381607,1.8883713614546511,8.196228427889803
0.1190967624115677,1.8875718344448282,8.188190323894926
0.11970751503931934,1.8867780920221786,8.179946247964734
0.12031826766707095,1.8859899529045836,8.171507032135043
0.12092902029482258,1.8852072480576783,8.162883622802694
0.12153977292257422,1.884429820519616,8.154087058055476
0.12215052555032585,1.8836575252043122,8.14512844478996
0.12276127817807747,1.882890228683979,8.136018935696843
0.1233720308058291,1.8821278089517723,8.126769706189176
0.12398278343358073,1.881370155165458,8.11739193134915
0.12459353606133236,1.8806171673730312,8.107896762968675
0.125204288689084,1.879868756221265,8.098295306755166
0.1258150413168356,1.8791248426482146,8.088598599774437
0.12642579394458725,1.8783853575607083,8.078817588198227
0.12703654657233887,1.8776502414979117,8.068963105424249
0.12764729920009052,1.8769194442820547,8.059045850631565
0.12825805182784214,1.8761929246574336,8.049076367833765
0.12886880445559376,1.8754706499188152,8.039065025487476
0.1294795570833454,1.8747525955303757,8.02902199671358
0.13009030971109703,1.8740387447363154,8.018957240182434
0.13070106233884865,1.8733290881642781,8.00888048171348
0.13131181496660027,1.8726236234227216,7.998801196636124
0.13192256759435192,1.871922354693357,7.988728592954503
0.13253332022210354,1.8712252923197699,7.97867159535619
0.1331440728498552,1.8705324523933364,7.968638830102185
0.13375482547760678,1.8698438563375002,7.958638610830216
0.13436557810535843,1.8691595304914825,7.948678925302442
0.13497633073311005,1.8684795056944665,7.93876742312339
0.1355870833608617,1.8678038168712554,7.928911404451075
0.13619783598861332,1.8671325026204038,7.9191178097218735
0.13680858861636494,1.8664656048057657,7.909393210404983
0.13741934124411656,1.8658031681523881,7.899743800799649
0.13803009387186818,1.8651452398476345,7.89017539088583
0.13864084649961983,1.864491869148394,7.880693400234636
0.13925159912737145,1.8638431069951897,7.87130285298192
0.1398623517551231,1.863199005633971,7.862008373867032
0.14047310438287472,1.8625596182463284,7.852814185333154
0.14108385701062634,1.8619249985888318,7.843724105685518
0.141694609638378,1.8612952006421528,7.834741548297715
0.1423053622661296,1.8606702782706035,7.825869521858435
0.14291611489388123,1.8600502848926603,7.817110631642498
0.14352686752163288,1.8594352731630257,7.80846708179294
0.1441376201493845,1.8588252946667223,7.799940678594439
0.14474837277713615,1.8582203996256867,7.791532834719213
0.14535912540488774,1.857620636618273,7.783244574421071
0.14596987803263936,1.8570260523120623,7.775076539655014
0.146580630660391,1.8564366912103012,7.76702899709346
0.14719138328814263,1.8558525954122869,7.759101846012166
0.14780213591589428,1.8552738043879506,7.751294627014505
0.1484128885436459,1.8547003547668695,7.7436065315618015
0.14902364117139752,1.8541322801418887,7.736036412276603
0.14963439379914917,1.8535696108875104,7.728582793982344
0.1502451464269008,1.8530123739931514,7.7212438854436
0.15085589905465244,1.8524605929113558,7.714017591767947
0.15146665168240406,1.8519142874209955,7.706901527430462
0.15207740431015568,1.851373473505476,7.6998930298803785
0.15268815693790733,1.8508381632459008,7.692989173687103
0.15329890956565892,1.8503083647291574,7.686186785184705
0.15390966219341054,1.849784081970806,7.679482457570153
0.1545204148211622,1.8492653148526723,7.672872566411489
0.1551311674489138,1.8487520590749595,7.666353285520944
0.15574192007666546,1.8482443061227192,7.659920603148258
0.15635267270441708,1.847742043246444,7.65357033844684
0.1569634253321687,1.8472452534565502,7.647298158168452
0.15757417795992035,1.846753915531475,7.64109959353848
0.15818493058767197,1.8462680040390835,7.634970057266386
0.15879568321542362,1.8457874893710704,7.628904860643223
0.15940643584317524,1.84531233778999,7.622899230681733
0.16001718847092686,1.8448425114885616,7.616948327251237
0.1606279410986785,1.8443779686608328,7.611047260161597
0.1612386937264301,1.8439186635847895,7.605191106151143
0.16184944635418172,1.8434645467159774,7.599374925733443
0.16246019898193337,1.843015564791658,7.5935937798573905
0.163070951609685,1.8425716609450409,7.587842746339373
0.16368170423743664,1.8421327748290721,7.582116936021553
0.16429245686518826,1.8416988427492897,7.576411508617646
0.16490320949293988,1.8412697978051904,7.570721688202621
0.16551396212069153,1.840845570039591,7.5650427783091
0.16612471474844315,1.8404260865954085,7.55937017659047
0.1667354673761948,1.8400112718793038,7.553699389014576
0.16734622000394642,1.8396010477316114,7.548026043553125
0.16795697263169804,1.8391953336019635,7.542345903331609
0.16856772525944969,1.838794046730026,7.536654879208748
0.16917847788720128,1.8383971023307426,7.530949041755327
0.16978923051495293,1.838004413783485,7.525224632602511
0.17039998314270455,1.8376158928245176,7.519478075134804
0.17101073577045617,1.8372314497421527,7.513705984502152
0.17162148839820782,1.8368509935740112,7.507905176928765
0.17223224102595944,1.836474432305774,7.502072678298763
0.17284299365371106,1.8361016730708373,7.496205732000288
0.1734537462814627,1.8357326223502717,7.490301806012533
0.17406449890921433,1.835367186172503,7.484358599221597
0.17467525153696598,1.8350052703121382,7.478374046954419
0.1752860041647176,1.8346467804873736,7.472346325722281
0.17589675679246922,1.8342916225554233,7.466273857166049
0.17650750942022086,1.83393970270543,7.460155311200895
0.17711826204797246,1.833590927648334,7.453989608357419
0.1777290146757241,1.8332452048031826,7.44777592132036
0.17833976730347573,1.8329024424793883,7.441513675668335
0.17895051993122735,1.8325625500544604,7.435202549818954
0.179561272558979,1.832225438146752,7.428842474188815
0.18017202518673062,1.8318910187827888,7.422433629576535
0.18078277781448224,1.831559205558762,7.415976444782355
0.18139353044223389,1.8312299137957977,7.40947159347885
0.1820042830699855,1.8309030606886305,7.402919990348042
0.18261503569773715,1.8305785654473463,7.396322786505319
0.18322578832548878,1.830256349431865,7.389681364230008
0.1838365409532404,1.8299363362788832,7.382997331024799
0.18444729358099204,1.8296184520209975,7.376272513029221
0.18505804620874364,1.8293026251977849,7.3695089478130384
0.18566879883649529,1.8289887869586134,7.362708876577105
0.1862795514642469,1.828676871157009,7.355874735791189
0.18689030409199853,1.8283668144364187,7.349009148299846
0.18750105671975018,1.8280585563072391,7.342114913927553
0.1881118093475018,1.8277520392150108,7.33519499961734
0.18872256197525342,1.8274472085997084,7.328252529136757
0.18933331460300507,1.827144012946068,7.321290772386303
0.18994406723075669,1.8268424038249502,7.314313134347016
0.19055481985850833,1.8265423359257298,7.307323143703853
0.19116557248625995,1.8262437670797567,7.300324441182109
0.19177632511401158,1.82594665827494,7.2933207676355565
0.19238707774176322,1.8256509736615458,7.286315951923542
0.19299783036951482,1.825356680549315,7.279313898617108
0.19360858299726647,1.8250637493960322,7.272318575571338
0.19421933562501809,1.8247721537877026,7.265334001403497
0.1948300882527697,1.8244818704105168,7.258364232915138
0.19544084088052135,1.8241928790148005,7.251413352497129
0.19605159350827298,1.8239051623711635,7.244485455554304
0.19666234613602462,1.8236187062190954,7.23758463798897
0.19727309876377624,1.8233334992082577,7.230714983778565
0.19788385139152787,1.8230495328327456,7.223880552684788
0.1984946040192795,1.8227668013586107,7.217085368129046
0.19910535664703113,1.8224853017449527,7.210333405270138
0.19971610927478275,1.8222050335588855,7.203628579315586
0.20032686190253438,1.8219259988847243,7.196974734101473
0.200937614530286,1.821648202227723,7.1903756309713796
0.20154836715803764,1.8213716504127173,7.183834937984129
0.20215911978578927,1.8210963524780373,7.177356219480888
0.20276987241354089,1.8208223195650557,7.170942926037562
0.20338062504129253,1.8205495648037462,7.16459838483036
0.20399137766904415,1.8202781031946358,7.158325790438033
0.2046021302967958,1.8200079514875298,7.152128196104962
0.20521288292454742,1.8197391280574076,7.146008505486528
0.20582363555229904,1.8194716527778716,7.139969464896819
0.2064343881800507,1.8192055468925419,7.13401365607684
0.2070451408078023,1.8189408328847896,7.128143489501006
0.2076558934355539,1.8186775343461972,7.122361198235868
0.20826664606330555,1.8184156758441365,7.116668832364878
0.20887739869105718,1.8181552827888392,7.1110682539908865
0.20948815131880882,1.817896381300353,7.10556113282609
0.21009890394656044,1.8176389980757475,7.10014894237729
0.21070965657431207,1.8173831602569426,7.09483295673292
0.2113204092020637,1.8171288952995184,7.08961424795626
0.21193116182981533,1.816876230842865,7.084493684087561
0.21254191445756698,1.8166251945820093,7.0794719277558125
0.2131526670853186,1.8163758141414605,7.074549435399757
0.21376341971307022,1.8161281169513932,7.0697264570949345
0.21437417234082187,1.81588213012649,7.065003036983456
