frequency,refractiveIndex,absorption
0.0006107526277516292,2.7168677137551214,0.0032125818916783505
0.0012215052555032584,2.716335788944201,0.012841385659077257
0.0018322578832548875,2.715450994761601,0.028859654541612212
0.002443010511006517,2.714215936100243,0.051223022664272616
0.003053763138758146,2.7126342283777154,0.07986985414071987
0.003664515766509775,2.710710466767893,0.11472170996601581
0.004275268394261404,2.708450187567993,0.15568393512201753
0.004886021022013034,2.705859822357577,0.2026463565320823
0.005496773649764663,2.7029466457118514,0.25548408097587216
0.006107526277516292,2.699718717315925,0.3140583808433911
0.006718278905267922,2.6961848193882867,0.3782176546918551
0.00732903153301955,2.692354390360017,0.447798448978798
0.00793978416077118,2.688237455771263,0.5226265270773673
0.008550536788522809,2.6838445573395253,0.6025179717216735
0.009161289416274438,2.6791866811270517,0.6872803073575604
0.009772042044026067,2.674275185689303,0.7767136294571415
0.010382794671777697,2.669121731026134,0.870611728656203
0.010993547299529326,2.6637382090844848,0.9687631985524348
0.011604299927280955,2.6581366764796246,1.0709525171169267
0.012215052555032585,2.6523292900140527,1.1769610928793923
0.012825805182784214,2.6463282454820622,1.2865682683097497
0.013436557810535843,2.64014572015635,1.3995522740966304
0.014047310438287471,2.633793819263335,1.515691129285847
0.0146580630660391,2.6272845266678515,1.634763483458992
0.015268815693790731,2.6206296599074217,1.7565493982820901
0.01587956832154236,2.613840829642406,1.8808310668181951
0.01649032094929399,2.606929403521986,2.00739346996304
0.017101073577045618,2.59990647440765,2.1360249702212317
0.01771182620479725,2.592782832845578,2.266517843787236
0.018322578832548876,2.585568943637559,2.3986687525312935
0.018933331460300507,2.5782749263259084,2.532279158016438
0.019544084088052135,2.5709105393812837,2.667155680095052
0.020154836715803762,2.5634851678627277,2.80311040295855
0.020765589343555393,2.556007814305794,2.9399611317491683
0.02137634197130702,2.548487092586831,3.0775316029988424
0.021987094599058652,2.5409312245086304,3.215651652244589
0.02259784722681028,2.5333480388537284,3.3541573421934325
0.02320859985456191,2.5257449726564953,3.4928910547810106
0.023819352482313542,2.518129074452597,3.631701550396532
0.02443010511006517,2.510507009274208,3.7704439974388473
0.025040857737816797,2.5028850651708616,3.908979975234874
0.025651610365568428,2.495269161048487,4.047177453195409
0.026262362993320056,2.4876648556327456,4.184910748913994
0.026873115621071687,2.4800773573767483,4.32206046773498
0.027483868248823314,2.4725115351472895,4.458513426132087
0.028094620876574942,2.4649719295378705,4.594162561053727
0.028705373504326573,2.457462764670393,4.7289068272074655
0.0293161261320782,2.4499879603607626,4.862651084076793
0.029926878759829835,2.4425511445362584,4.995305974290698
0.030537631387581463,2.4351556658045914,5.126787794802031
0.03114838401533309,2.427804606085843,5.257018362174951
0.03175913664308472,2.420500793229055,5.385924873135691
0.03236988927083635,2.4132468135449656,5.513439761406424
0.03298064189858798,2.4060450241954285,5.6395005517159955
0.03359139452633961,2.398897565388248,5.764049711767747
0.034202147154091235,2.391806372333732,5.887034502840687
0.03481289978184286,2.384773186925999,6.00840682960561
0.0354236524095945,2.3777995691182925,6.1281230896547285
0.036034405037346125,2.370886907967006,6.2461440231669885
0.03664515766509775,2.364036432324134,6.362434563066253
0.03725591029284938,2.3572492211621774,6.476963685970047
0.037866662920601014,2.350526213519517,6.589704264176606
0.038477415548352635,2.3438682180576476,6.700632918893992
0.03908816817610427,2.3372759222247583,6.809729874877052
0.039698920803855904,2.3307499010227817,6.9169788166073936
0.040309673431607525,2.324290625377335,7.02236674612375
0.04092042605935916,2.3178984701120364,7.125883842589432
0.04153117868711079,2.3115737215304257,7.227523323664874
0.04214193131486242,2.305316584610199,7.327281308740503
0.04275268394261404,2.2991271898157697,7.425156684072844
0.04336343657036568,2.2930055995362806,7.521150969860238
0.043974189198117304,2.286951814157114,7.61526818928807
0.04458494182586893,2.280965777773709,7.707514739569835
0.04519569445362056,2.275047383557185,7.797899265008884
0.045806447081372194,2.2691964787817565,7.886432532104648
0.04641719970912382,2.2634128695243825,7.973127306728126
0.04702795233687545,2.2576963250474273,8.057998233392262
0.047638704964627084,2.25204658187538,8.141061716645716
0.048249457592378704,2.246463347576822,8.22233580461964
0.04886021022013034,2.240946304263049,8.30184007476106
0.049470962847881966,2.235495111814737,8.379595521788332
0.050081715475633594,2.230109410848138,8.455624447907304
0.05069246810338522,2.2247888254322303,8.52995035532889
0.051303220731136856,2.2195329655682294,8.60259784113166
0.05191397335888848,2.214341429442743,8.673592494514109
0.05252472598664011,2.209213805465801,8.742960796484294
0.053135478614391746,2.204149674104751,8.810730022033685
0.05374623124214337,2.199148609524946,8.876928144844571
0.054356983869895,2.1942101810479127,8.941583744579791
0.05496773649764663,2.1893339544374513,9.004725916802458
0.05557848912539826,2.184519493023986,9.066384185574464
0.056189241753149884,2.1797663586771656,9.126588418779425
0.05679999438090152,2.1750741126364783,9.185368746215008
0.057410747008653146,2.1704423162094266,9.24275548049674
0.05802149963640477,2.165870531346477,9.29877904081383
0.0586322522641564,2.161358321101753,9.353469879573263
0.059243004891908035,2.1569052499881276,9.406858411965851
0.05985375751965967,2.1525108842351166,9.458974948484448
0.06046451014741129,2.148174791957606,9.509849630419977
0.061075262775162925,2.143896543243213,9.559512368357247
0.06168601540291455,2.139675710165715,9.607992783687978
0.06229676803066618,2.1355118667317208,9.65532015315415
0.0629075206584178,2.131404588767416,9.701523356430501
0.06351827328616944,2.1273534537519163,9.746630826748932
0.06412902591392107,2.1233580406034602,9.790670504565007
0.0647397785416727,2.119417929424369,9.833669794260132
0.06535053116942433,2.115532701210396,9.875655523869538
0.06596128379717596,2.1117019375298036,9.916653907820864
0.0665720364249276,2.1079252201771785,9.956690512663725
0.06718278905267921,2.1042021308067986,9.995790225766777
0.06779354168043085,2.100532250549948,10.033977226953184
0.06840429430818247,2.096915159620451,10.071274963042509
0.06901504693593409,2.0933504369123512,10.107706125262697
0.06962579956368573,2.089837659593391,10.143292629490814
0.07023655219143736,2.086376402697765,10.178055599278801
0.070847304819189,2.0829662387213266,10.212015351616856
0.07145805744694061,2.079606737222231,10.245191385382405
0.07206881007469225,2.0762974644297403,10.277602372421034
0.07267956270244387,2.07303798286375,10.309266151201358
0.0732903153301955,2.069827850967343,10.340199722984051
0.07390106795794714,2.0666666227545303,10.370419250441309
0.07451182058569876,2.0635538474751023,10.399940058661976
0.0751225732134504,2.0604890692983906,10.428776638473368
0.07573332584120203,2.057471827017518,10.45694265201031
0.07634407846895366,2.054501653775586,10.484450940458547
0.07695483109670527,2.0515780768150957,10.511313533897887
0.0775655837244569,2.0487006172517304,10.537541663169511
0.07817633635220854,2.0458687898735075,10.563145773688262
0.07878708897996017,2.043082102966161,10.588135541120591
0.07939784160771181,2.0403400581655227,10.612519888847343
0.08000859423546343,2.03764215033748,10.636307007126925
0.08061934686321505,2.0349878674860733,10.659504373876121
0.08123009949096668,2.032376690690074,10.682118776981449
0.08184085211871832,2.029808094068388,10.704156338054942
0.08245160474646994,2.0272815447744374,10.72562253754564
0.08306235737422157,2.0247965030196418,10.746522241117514
0.08367311000197321,2.0223524221259823,10.766859727203103
0.08428386262972484,2.019948748607577,10.786638715641772
0.08489461525747646,2.017584922281078,10.80586239730955
0.08550536788522808,2.015260376404646,10.824533464647834
0.08611612051297972,2.012974537845142,10.842654142996127
0.08672687314073135,2.010726827273136,10.860226222634667
0.08733762576848299,2.008516659385212,10.877251091440822
0.08794837839623461,2.006343443153021,10.89372976806399
0.08855913102398623,2.0042065820983996,10.909662935521972
0.08916988365173786,2.002105474593863,10.92505097512281
0.0897806362794895,2.000039514187666,10.939894000615167
0.09039138890724112,1.9980080899525672,10.954191892470186
0.09100214153499275,1.9960105868573847,10.96794433219899
0.09161289416274439,1.994046386160329,10.981150836609096
0.09222364679049602,1.992114865823069,10.993810791904414
0.09283439941824764,1.990215400944412,11.005923487533716
0.09344515204599926,1.988347364212415,11.017488149694048
0.0940559046737509,1.9865101263736937,11.028503974395742
0.09466665730150253,1.9847030567186454,11.038970159997826
0.09527740992925417,1.9829255235812395,11.048885939124515
0.09588816255700579,1.981176894851989,11.05825060987406
0.09649891518475741,1.9794565385026768,11.067063566235054
0.09710966781250904,1.9777638231213541,11.07532432762574
0.09772042044026068,1.9760981184561017,11.083032567476675
0.09833117306801231,1.9744587959660185,11.090188140778272
0.09894192569576393,1.9728452293778547,11.096791110518542
0.09955267832351557,1.9712567952466964,11.102841772939612
0.10016343095126719,1.9696928735190906,11.108340681545997
0.10077418357901882,1.968152848096976,11.113288669800491
0.10138493620677044,1.9666361074007948,11.117686872448344
0.10199568883452208,1.9651420449301207,11.121536745414247
0.10260644146227371,1.9636700598201957,11.124840084222384
0.10321719409002535,1.9622195573927381,11.127599040893193
0.10382794671777695,1.960789949699389,11.12981613927677
0.10443869934552859,1.9593806560562361,11.131494288786612
0.10504945197328022,1.9579911035678366,11.132636796505166
0.10566020460103186,1.9566207276391903,11.133247377634186
0.10627095722878349,1.9552689724742047,11.133330164273536
0.10688170985653511,1.953935291559156,11.132889712512432
0.10749246248428675,1.952619148129798,11.131931007827639
0.10810321511203837,1.9513200156207344,11.130459468785167
0.10871396773979,1.950037378095788,11.12848094904963
0.10932472036754162,1.948770730658152,11.126001737711654
0.10993547299529326,1.9475195798391767,11.123028557947514
0.11054622562304489,1.9462834439647092,11.11956856403195
0.11115697825079653,1.9450618534980137,11.115629336731603
0.11176773087854816,1.9438543513583462,11.11121887710946
0.11237848350629977,1.9426604932143694,11.106345598777963
0.1129892361340514,1.9414798477516786,11.10101831864343
0.11359998876180304,1.9403119969137796,11.095246246187212
0.11421074138955467,1.9391565361159884,11.089038971336436
0.11482149401730629,1.9380130744317925,11.082406450980143
0.11543224664505793,1.9368812347513018,11.075358994189614
0.11604299927280955,1.9357606539115493,11.067907246208675
0.11665375190056118,1.934650982798463,11.060062171280299
0.1172645045283128,1.9335518864204337,11.051835034379984
0.11787525715606444,1.9324630439535135,11.04323738193036
0.11848600978381607,1.931384148758367,11.03428102157312
0.1190967624115677,1.9303149083691604,11.024978001075768
0.11970751503931934,1.9292550444547205,11.015340586454863
0.12031826766707095,1.9282042927523246,11.005381239397362
0.12092902029482258,1.9271624029746053,10.99511259406236
0.12153977292257422,1.9261291386901072,10.98454743334867
0.12215052555032585,1.9251042771781381,10.973698664711936
0.12276127817807747,1.9240876092586048,10.962579295616724
0.1233720308058291,1.9230789390975969,10.951202408707672
0.12398278343358073,1.9220780839895664,10.93958113678433
0.12459353606133236,1.9210848741169817,10.927728637664007
0.125204288689084,1.920099152288409,10.915658069013471
0.1258150413168356,1.919120773656021,10.903382563232507
0.12642579394458725,1.9181496054135656,10.89091520246776
0.12703654657233887,1.9171855264758888,10.878268993835349
0.12764729920009052,1.9162284271411207,10.86545684492769
0.12825805182784214,1.91527820873668,10.852491539678141
0.12886880445559376,1.914334783250261,10.839385714654707
0.1294795570833454,1.9133980729470046,10.82615183585033
0.13009030971109703,1.912468009974058,10.812802176036437
0.13070106233884865,1.9115445359537475,10.79934879274121
0.13131181496660027,1.9106276015665837,10.785803506912712
0.13192256759435192,1.909717166125334,10.772177882322527
0.13253332022210354,1.9088131971413869,10.758483205763602
0.1331440728498552,1.9079156698846294,10.744730468090395
0.13375482547760678,1.907024566938044,10.730930346148904
0.13436557810535843,1.9061398777482288,10.71709318563803
0.13497633073311005,1.905261598173019,10.703228984941775
0.1355870833608617,1.904389730027362,10.68934737996709
0.13619783598861332,1.9035242806286023,10.675457630020103
0.13680858861636494,1.90266526234227,10.661568604748235
0.13741934124411656,1.9018126921294667,10.64768877217337
0.13803009387186818,1.9009665910969011,10.633826187836892
0.13864084649961983,1.9001269840505974,10.61998848507497
0.13925159912737145,1.8992938990542674,10.606182866437688
0.1398623517551231,1.8984673669932872,10.592416096263479
0.14047310438287472,1.8976474211452141,10.578694494415911
0.14108385701062634,1.8968340967577035,10.565023931188128
0.141694609638378,1.8960274306346743,10.551409823374579
0.1423053622661296,1.8952274607315236,10.537857131509927
0.14291611489388123,1.8944342257601372,10.52437035826798
0.14352686752163288,1.8936477648044299,10.510953548015271
0.1441376201493845,1.8928681169470782,10.497610287505886
0.14474837277713615,1.8920953209080882,10.484343707705952
0.14535912540488774,1.8913294146957842,10.471156486730228
0.14596987803263936,1.890570435270772,10.458050853872752
0.146580630660391,1.8898184182233884,10.44502859470949
0.14719138328814263,1.8890733974650955,10.43209105725006
0.14780213591589428,1.8883354049342524,10.419239159111129
0.1484128885436459,1.8876044703166464,10.40647339568468
0.14902364117139752,1.8868806207811175,10.393793849269438
0.14963439379914917,1.8861638807305974,10.381200199133426
0.1502451464269008,1.8854542715688059,10.368691732473447
0.15085589905465244,1.8847518114828328,10.356267356234524
0.15146665168240406,1.8840565152417976,10.343925609751999
0.15207740431015568,1.8833683940117152,10.331664678176116
0.15268815693790733,1.8826874551866883,10.319482406637757
0.15329890956565892,1.8820137022364807,10.30737631511288
0.15390966219341054,1.8813471345705124,10.295343613941554
0.1545204148211622,1.8806877474182757,10.283381219956196
0.1551311674489138,1.8800355317261064,10.271485773171907
0.15574192007666546,1.879390474070268,10.259653653992807
0.15635267270441708,1.8787525565862089,10.247881000884187
0.1569634253321687,1.8781217569138609,10.236163728461916
0.15757417795992035,1.8774980481587993,10.224497545949761
0.15818493058767197,1.8768813988690507,10.212877975952061
0.15879568321542362,1.8762717730273069,10.201300373492392
0.15940643584317524,1.8756691300582684,10.189759945265116
0.16001718847092686,1.8750734248508212,10.178251769049439
0.1606279410986785,1.8744846077947015,10.166770813232205
0.1612386937264301,1.873902624831294,10.155311956388944
0.16184944635418172,1.8733274175181747,10.143870006869784
0.16246019898193337,1.8727589231069748,10.132439722339601
0.163070951609685,1.8721970746341328,10.121015829219896
0.16368170423743664,1.871641801024056,10.109593041982293
0.16429245686518826,1.8710930272042163,10.098166082242257
0.16490320949293988,1.8705506742316542,10.086729697604518
0.16551396212069153,1.8700146594303617,10.075278680210134
0.16612471474844315,1.8694848965389987,10.063807884937946
0.1667354673761948,1.8689612958683535,10.052312247213433
0.16734622000394642,1.8684437644679763,10.040786800379761
0.16795697263169804,1.867932206301366,10.029226692585828
0.16856772525944969,1.8674265224291031,10.017627203149896
0.16917847788720128,1.8669266111992837,10.005983758356
0.16978923051495293,1.8664323684446227,9.994291946645331
0.17039998314270455,1.8659436876855666,9.982547533163784
0.17101073577045617,1.8654604603387563,9.970746473630301
0.17162148839820782,1.8649825759301744,9.958884927492276
0.17223224102595944,1.8645099223122992,9.946959270336485
0.17284299365371106,1.8640423858846007,9.934966105526204
0.1734537462814627,1.8635798518166966,9.922902275037433
0.17406449890921433,1.863122204273488,9.910764869469144
0.17467525153696598,1.8626693266416183,9.898551237206334
0.1752860041647176,1.8622211017565677,9.886258992715069
0.17589675679246922,1.8617774121297388,9.873886023953
0.17650750942022086,1.8613381401748665,9.861430498880905
0.17711826204797246,1.8609031684331174,9.8488908710633
0.1777290146757241,1.8604723797962321,9.83626588434835
0.17833976730347573,1.8600456577271096,9.82355457662211
0.17895051993122735,1.859622886477209,9.810756282631871
0.179561272558979,1.8592039513001937,9.797870635878557
0.18017202518673062,1.8587887386612345,9.784897569579611
0.18078277781448224,1.8583771364414328,9.771837316706778
0.18139353044223389,1.8579690341368216,9.758690409106356
0.1820042830699855,1.8575643230514378,9.745457675710792
0.18261503569773715,1.8571628964839841,9.732140239854827
0.18322578832548878,1.8567646499076171,9.718739515711103
0.1838365409532404,1.8563694811424174,9.705257203862063
0.18444729358099204,1.8559772905201493,9.691695286028178
0.18505804620874364,1.8555879810409133,9.678056018975337
0.18566879883649529,1.8552014585213434,9.664341927624772
0.1862795514642469,1.8548176317340292,9.650555797392958
0.18689030409199853,1.8544364125378598,9.6367006657896
0.18750105671975018,1.8540577159990306,9.622779813304827
0.1881118093475018,1.8536814605024785,9.60879675361743
0.18872256197525342,1.8533075678535422,9.594755223159027
0.18933331460300507,1.8529359633696685,9.58065917006937
0.18994406723075669,1.8525665759620373,9.56651274258054
0.19055481985850833,1.8521993382069804,9.552320276868512
0.19116557248625995,1.8518341864071253,9.538086284411744
0.19177632511401158,1.8514710606422078,9.523815438898117
0.19238707774176322,1.851109904809542,9.50951256272212
0.19299783036951482,1.8507506666541558,9.495182613115189
0.19360858299726647,1.8503932977886268,9.480830667951794
0.19421933562501809,1.8500377537027042,9.466461911276555
0.1948300882527697,1.8496839937627965,9.452081618595816
0.19544084088052135,1.849331981201465,9.437695141978876
0.19605159350827298,1.848981683097065,9.42330789501337
0.19666234613602462,1.8486330703437177,9.408925337660062
0.19727309876377624,1.8482861176118168,9.394552961051192
0.19788385139152787,1.8479408032992894,9.380196272277338
0.1984946040192795,1.8475971094738655,9.365860779206457
0.19910535664703113,1.8472550218066277,9.351551975379223
0.19971610927478275,1.8469145294971252,9.337275325022826
0.20032686190253438,1.8465756251903742,9.323036248225936
0.200937614530286,1.846238304886061,9.308840106316627
0.20154836715803764,1.845902567840299,9.294692187482239
0.20215911978578927,1.8455684164603026,9.280597692672126
0.20276987241354089,1.8452358561923519,9.266561721820603
0.20338062504129253,1.844904895403433,9.252589260426788
0.20399137766904415,1.8445755452569603,9.238685166527857
0.2046021302967958,1.8442478195829872,9.224854158098855
0.20521288292454742,1.8439217347433265,9.211100800912298
0.20582363555229904,1.8435973094920117,9.197429496888766
0.2064343881800507,1.843274564831529,9.18384447296728
0.2070451408078023,1.8429535238652606,9.170349770523885
0.2076558934355539,1.8426342116465886,9.156949235363914
0.20826664606330555,1.8423166550251016,9.143646508312534
0.20887739869105718,1.842000882490351,9.13044501642527
0.20948815131880882,1.8416869240136158,9.117347964839702
0.21009890394656044,1.8413748108881107,9.104358329285859
0.21070965657431207,1.8410645755680934,9.09147884927252
0.2113204092020637,1.840756251507314,9.078712021963687
0.21193116182981533,1.8404498729972405,9.06606009675747
0.21254191445756698,1.8401454750055009,9.053525070578237
0.2131526670853186,1.8398430930149619,9.041108683890268
