frequency,refractiveIndex,absorption
0.0006107526277516292,2.8071288554452214,0.005723960713082025
0.0012215052555032584,2.805388411582245,0.022849305453640976
0.0018322578832548875,2.802504294885176,0.05123752082038091
0.002443010511006517,2.798500999698268,0.09066135873836598
0.003053763138758146,2.7934119611608916,0.14081005995006204
0.003664515766509775,2.7872787511821753,0.20129630772058837
0.004275268394261404,2.78015011509755,0.27166458912213115
0.004886021022013034,2.7720808934660086,0.35140059598425477
0.005496773649764663,2.763130875416509,0.4399412792545016
0.006107526277516292,2.7533636287374144,0.5366851777606206
0.006718278905267922,2.7428453480105977,0.641002671505365
0.00732903153301955,2.731643756201303,0.7522458553938787
0.00793978416077118,2.719827087987258,0.869757785728871
0.008550536788522809,2.70746317548473,0.9928809130436921
0.009161289416274438,2.6946186495474223,1.1209645757248292
0.009772042044026067,2.6813582629700132,1.2533714853501274
0.010382794671777697,2.667744336054664,1.3894831839407877
0.010993547299529326,2.6538363202696553,1.5287044938212004
0.011604299927280955,2.6396904721867704,1.6704670119876404
0.012215052555032585,2.6253596274678404,1.814231723114422
0.012825805182784214,2.6108930632532004,1.9594908194514589
0.013436557810535843,2.5963364367206467,2.105768823099356
0.014047310438287471,2.5817317876550847,2.252623107829162
0.0146580630660391,2.567117593424663,2.399643915074607
0.015268815693790731,2.552528865644691,2.5464539531840202
0.01587956832154236,2.5379972788950877,2.6927076615278636
0.01649032094929399,2.523551323036492,2.8380902124790715
0.017101073577045618,2.5092164718646166,2.982316315287279
0.01771182620479725,2.4950153619950544,3.1251288769522367
0.018322578832548876,2.4809679769438646,3.266297566713473
0.018933331460300507,2.467091832340103,3.405617322934835
0.019544084088052135,2.453402159064207,3.5429068340990364
0.020154836715803762,2.439912081848981,3.6780070193923304
0.020765589343555393,2.4266327915110906,3.81077952894963
0.02137634197130702,2.413573709508731,3.941105279212781
0.021987094599058652,2.400742643954732,4.0688830349663965
0.02259784722681028,2.388145936565155,4.194028046389124
0.02320859985456191,2.3757886003020086,4.316470746813536
0.023819352482313542,2.3636744476860376,4.436155514752539
0.02443010511006517,2.351806209920886,4.553039502046461
0.025040857737816797,2.340185647092862,4.667091528651411
0.025651610365568428,2.3288136497981107,4.778291043560223
0.026262362993320056,2.3176903326085343,4.886627150571867
0.026873115621071687,2.306815119824803,4.992097697056287
0.027483868248823314,2.296186823984219,5.094708423458535
0.028094620876574942,2.2858037175970236,5.19447217101653
0.028705373504326573,2.275663598580425,5.291408145000538
0.0293161261320782,2.265763849847722,5.385541230698374
0.029926878759829835,2.2561014934926944,5.476901359347092
0.030537631387581463,2.2466732399886777,5.565522921235639
0.03114838401533309,2.237475532798621,5.651444223259395
0.03175913664308472,2.2285045887683044,5.734706988289129
0.03236988927083635,2.219756434650221,5.815355893813431
0.03298064189858798,2.2112269400812488,5.893438147420377
0.03359139452633961,2.2029118473135294,5.969003096796836
0.034202147154091235,2.194806797975109,6.042101872037961
0.03481289978184286,2.1869073571153326,6.112787058173567
0.0354236524095945,2.1792090347695083,6.181112395929282
0.036034405037346125,2.171707305258373,6.247132508848639
0.03664515766509775,2.164397624420176,6.310902655007362
0.03725591029284938,2.1572754449567357,6.372478501648675
0.037866662920601014,2.150336230059797,6.431915921164729
0.038477415548352635,2.1435754654700667,6.489270806938762
0.03908816817610427,2.1369886701085616,6.544598907647341
0.039698920803855904,2.130571405408221,6.597955678703349
0.040309673431607525,2.1243192834630547,6.6493961495964005
0.04092042605935916,2.1182279741023025,6.69897480596052
0.04153117868711079,2.112293210988144,6.746745485266286
0.04214193131486242,2.1065107968273415,6.792761285101613
0.04275268394261404,2.100876607779697,6.837074483065484
0.04336343657036568,2.0953865971393535,6.879736467358693
0.043974189198117304,2.0900367983587316,6.920797677211412
0.04458494182586893,2.084823327479118,6.960307552340578
0.04519569445362056,2.07974238502664,6.9983144906800145
0.045806447081372194,2.0747902574275447,7.034865813675658
0.04641719970912382,2.0699633179922072,7.070007738482636
0.04702795233687545,2.065258027513213,7.103785356445552
0.047638704964627084,2.060670934519065,7.136242617284126
0.048249457592378704,2.0561986752215904,7.167422318445996
0.04886021022013034,2.0518379731918963,7.197366099125513
0.049470962847881966,2.0475856387967415,7.226114438483137
0.050081715475633594,2.0434385684244676,7.253706657632985
0.05069246810338522,2.039393743527089,7.280180924998673
0.051303220731136856,2.0354482295027543,7.305574264666132
0.05191397335888848,2.031599174440711,7.329922567391905
0.05252472598664011,2.0278438077487797,7.353260603950705
0.053135478614391746,2.0241794386816103,7.3756220405317565
0.05374623124214337,2.0206034547861753,7.397039455916385
0.054356983869895,2.0171133202794604,7.417544360192276
0.05496773649764663,2.0137065743717835,7.437167214778871
0.05557848912539826,2.0103808295478487,7.455937453558927
0.056189241753149884,2.007133769816451,7.4738835049292645
0.05679999438090152,2.0039631489384897,7.491032814599033
0.057410747008653146,2.0008667886420315,7.507411868981237
0.05802149963640477,1.9978425768320955,7.52304621903659
0.0586322522641564,1.9948884658019952,7.537960504442522
0.059243004891908035,1.9920024704522603,7.552178477972882
0.05985375751965967,1.9891826665224077,7.565723029984826
0.06046451014741129,1.986427188840154,7.578616212921047
0.061075262775162925,1.983734229592054,7.590879265744197
0.06168601540291455,1.9811020366189875,7.6025326382303335
0.06229676803066618,1.978528911739398,7.6135960150563715
0.0629075206584178,1.9760132091027378,7.624088339624382
0.06351827328616944,1.9735533335751452,7.634027837571711
0.06412902591392107,1.971147739159025,7.643432039924776
0.0647397785416727,1.9687949274478338,7.652317805857227
0.06535053116942433,1.9664934461171053,7.660701345021729
0.06596128379717596,1.9642418874524532,7.66859823942739
0.0665720364249276,1.962038886915069,7.67602346484101
0.06718278905267921,1.9598831217449992,7.6829914116934654
0.06779354168043085,1.9577733096023358,7.689515905477307
0.06840429430818247,1.9557082072462262,7.695610226624269
0.06901504693593409,1.9536866092515521,7.701287129855848
0.06962579956368573,1.951707346762913,7.706558863001465
0.07023655219143736,1.9497692862855165,7.711437185282707
0.070847304819189,1.9478713285124383,7.7159333850639005
0.07145805744694061,1.9460124071876685,7.72005829707157
0.07206881007469225,1.9441914880042754,7.723822319087342
0.07267956270244387,1.9424075675369925,7.727235428120571
0.0732903153301955,1.9406596722084566,7.7303071960685115
0.07390106795794714,1.9389468572883375,7.733046804873547
0.07451182058569876,1.9372682059245347,7.735463061187336
0.0751225732134504,1.9356228282056351,7.7375644105544605
0.07573332584120203,1.9340098602537892,7.739358951127322
0.07634407846895366,1.9324284633471818,7.74085444692607
0.07695483109670527,1.9308778230712595,7.742058340657431
0.0775655837244569,1.9293571484978915,7.7429777661074235
0.07817633635220854,1.9278656713916522,7.743619560122719
0.07878708897996017,1.9264026454424152,7.7439902741964985
0.07939784160771181,1.9249673455234815,7.744096185674421
0.08000859423546343,1.923559066974466,7.743943308596627
0.08061934686321505,1.922177124908208,7.743537404192414
0.08123009949096668,1.9208208535409634,7.74288399104276
0.08184085211871832,1.9194896055451849,7.7419883549275506
0.08245160474646994,1.918182751424215,7.740855558373285
0.08306235737422157,1.9168996789082282,7.739490449916727
0.08367311000197321,1.9156397923707964,7.7378976731003135
0.08428386262972484,1.914402512265467,7.736081675214137
0.08489461525747646,1.9131872745817808,7.734046715799742
0.08550536788522808,1.9119935303201627,7.731796874929776
0.08611612051297972,1.9108207449851529,7.72933606127746
0.08672687314073135,1.9096683980964733,7.726668019989228
0.08733762576848299,1.9085359827174304,7.723796340373552
0.08794837839623461,1.9074230050001904,7.7207244634173975
0.08855913102398623,1.9063289837474857,7.71745568914315
0.08916988365173786,1.9052534499903087,7.713993183815321
0.0897806362794895,1.9041959465811995,7.710339987008496
0.09039138890724112,1.90315602780272,7.7064990185451006
0.09100214153499275,1.9021332589907467,7.7024730853120005
0.09161289416274439,1.9011272161722126,7.69826488796356
0.09222364679049602,1.9001374857169566,7.693877027518724
0.09283439941824764,1.8991636640033316,7.689312011857472
0.09344515204599926,1.8982053570972597,7.684572262123285
0.0940559046737509,1.8972621804444043,7.679660119035192
0.09466665730150253,1.8963337585751625,7.674577849113444
0.09527740992925417,1.8954197248221705,7.669327650822535
0.09588816255700579,1.8945197210500315,7.663911660632669
0.09649891518475741,1.8936333973969806,7.658331959001578
0.09710966781250904,1.8927604120281905,7.65259057627716
0.09772042044026068,1.891900430900454,7.646689498520704
0.09833117306801231,1.8910531275379514,7.640630673249664
0.09894192569576393,1.8902181828188316,7.634416015098493
0.09955267832351557,1.8893952847723252,7.6280474113943955
0.10016343095126719,1.8885841283861222,7.621526727645905
0.10077418357901882,1.8877844154237224,7.614855812939891
0.10138493620677044,1.8869958542514929,7.608036505242512
0.10199568883452208,1.8862181596751444,7.601070636599722
0.10260644146227371,1.8854510527853394,7.593960038231393
0.10321719409002535,1.8846942608121595,7.586706545513347
0.10382794671777695,1.8839475169881186,7.579312002840691
0.10443869934552859,1.8832105604194551,7.571778268366115
0.10504945197328022,1.8824831359653895,7.564107218605428
0.10566020460103186,1.881764994125047,7.556300752903409
0.10627095722878349,1.8810558909317519,7.548360797752127
0.10688170985653511,1.8803555878543747,7.54028931095382
0.10749246248428675,1.8796638517054292,7.532088285620912
0.10810321511203837,1.8789804545555957,7.523759754004044
0.10871396773979,1.878305173654365,7.5153057911414285
0.10932472036754162,1.8776377913564704,7.5067285183203465
0.10993547299529326,1.876978095053793,7.498030106343826
0.11054622562304489,1.876325877112417,7.489212778593869
0.11115697825079653,1.8756809348144965,7.480278813884116
0.11176773087854816,1.8750430703046292,7.471230549095045
0.11237848350629977,1.8744120905403834,7.462070381583245
0.1129892361340514,1.8737878072466743,7.452800771360069
0.11359998876180304,1.873170036873649,7.443424243031308
0.11421074138955467,1.87255860055776,7.4339433874936836
0.11482149401730629,1.8719533240857078,7.424360863381766
0.11543224664505793,1.8713540378609281,7.414679398260846
0.11604299927280955,1.8707605768723081,7.404901789560912
0.11665375190056118,1.870172780664824,7.395030905249167
0.1172645045283128,1.8695904933117884,7.385069684236091
0.11787525715606444,1.8690135633884053,7.375021136514346
0.11848600978381607,1.868441843946344,7.364888343027422
0.1190967624115677,1.8678751924890344,7.354674455267239
0.11970751503931934,1.867313470947409,7.344382694600276
0.12031826766707095,1.866756545655818,7.334016351322598
0.12092902029482258,1.8662042873278486,7.32357878344377
0.12153977292257422,1.8656565710318014,7.3130734152027355
0.12215052555032585,1.8651132761655707,7.302503735316646
0.12276127817807747,1.8645742864307002,7.291873294966659
0.1233720308058291,1.8640394898053843,7.281185705524067
0.12398278343358073,1.8635087785162072,7.270444636021202
0.12459353606133236,1.8629820490084108,7.259653810372884
0.125204288689084,1.8624592019145132,7.248817004353657
0.1258150413168356,1.8619401420210848,7.23793804233788
0.12642579394458725,1.8614247782335307,7.227020793809866
0.12703654657233887,1.8609130235387152,7.216069169651535
0.12764729920009052,1.8604047949652955,7.2050871182172616
0.12825805182784214,1.859900013541635,7.194078621203433
0.12886880445559376,1.8593986042511792,7.183047689324298
0.1294795570833454,1.8589004959851956,7.171998357802642
0.13009030971109703,1.8584056214927889,7.160934681687493
0.13070106233884865,1.8579139173281125,7.149860731009346
0.13131181496660027,1.8574253237947176,7.138780585785216
0.13192256759435192,1.8569397848869857,7.127698330885101
0.13253332022210354,1.8564572482286155,7.116618050773807
0.1331440728498552,1.8559776650081217,7.105543824139027
0.13375482547760678,1.8555009899113575,7.09447971842154
0.13436557810535843,1.855027181051038,7.08342978425914
0.13497633073311005,1.8545561998932891,7.0723980498596655
0.1355870833608617,1.8540880111812414,7.061388515316269
0.13619783598861332,1.8536225828557027,7.050405146880236
0.13680858861636494,1.8531598859729537,7.039451871205355
0.13741934124411656,1.8526998946197275,7.0285325695787835
0.13803009387186818,1.8522425858254346,7.017651072153305
0.13864084649961983,1.8517879394717156,7.006811152195714
0.13925159912737145,1.8513359381994008,6.996016520366291
0.1398623517551231,1.8508865673129804,6.985270819044682
0.14047310438287472,1.8504398146826893,6.974577616716466
0.14108385701062634,1.8499956706443141,6.9639404024357985
0.141694609638378,1.849554127896852,6.953362580378567
0.1423053622661296,1.8491151813981506,6.942847464500765
0.14291611489388123,1.8486788282586606,6.932398273316715
0.14352686752163288,1.848245067633455,6.922018124810916
0.1441376201493845,1.8478139006126595,6.911710031498
0.14474837277713615,1.8473853301104575,6.901476895644313
0.14535912540488774,1.8469593607528285,6.891321504664495
0.14596987803263936,1.846535998764197,6.881246526706326
0.146580630660391,1.846115251853158,6.871254506436334
0.14719138328814263,1.8456971290974655,6.861347861038857
0.14780213591589428,1.8452816408284642,6.8515288764399465
0.1484128885436459,1.8448687985151557,6.841799703768065
0.14902364117139752,1.8444586146480841,6.832162356062173
0.14963439379914917,1.844051102623242,6.822618705237782
0.1502451464269008,1.8436462766261876,6.813170479320574
0.15085589905465244,1.843244151516579,6.803819259957322
0.15146665168240406,1.8428447427133137,6.794566480212352
0.15207740431015568,1.8424480660804894,6.785413422657602
0.15268815693790733,1.8420541378143767,6.776361217764021
0.15329890956565892,1.84166297433161,6.767410842600259
0.15390966219341054,1.8412745921588003,6.758563119845411
0.1545204148211622,1.8408890078237659,6.74981871712006
0.1551311674489138,1.8405062377485866,6.74117814664094
0.15574192007666546,1.8401262981446729,6.73264176520223
0.15635267270441708,1.8397492049100526,6.724209774486438
0.1569634253321687,1.839374973529059,6.7158822217069405
0.15757417795992035,1.839003618974619,6.7076590005833046
0.15818493058767197,1.8386351556133187,6.69953985264956
0.15879568321542362,1.8382695971134329,6.691524368894865
0.15940643584317524,1.8379069563560895,6.6836119917350665
0.16001718847092686,1.837547245349746,6.675802017312947
0.1606279410986785,1.8371904751481347,6.66809359812343
0.1612386937264301,1.8368366557718399,6.660485745960226
0.16184944635418172,1.836485796133661,6.652977335178139
0.16246019898193337,1.836137903967893,6.645567106265501
0.163070951609685,1.8357929857636779,6.638253669719733
0.16368170423743664,1.8354510467025387,6.631035510218154
0.16429245686518826,1.835112090600222,6.623910991075364
0.16490320949293988,1.8347761198529597,6.616878358977967
0.16551396212069153,1.8344431353882436,6.609935748985775
0.16612471474844315,1.8341131366202095,6.603081189788854
0.1667354673761948,1.8337861214097018,6.596312609207508
0.16734622000394642,1.833462086029096,6.589627839923641
0.16795697263169804,1.8331410251319276,6.583024625428704
0.16856772525944969,1.8328229317273788,6.576500626174559
0.16917847788720128,1.8325077971596546,6.5700534259125245
0.16978923051495293,1.8321956110922712,6.563680538204
0.17039998314270455,1.8318863614972667,6.557379413087613
0.17101073577045617,1.8315800346493314,6.551147443885212
0.17162148839820782,1.831276615124846,6.544981974129666
0.17223224102595944,1.8309760858057944,6.538880304596871
0.17284299365371106,1.8306784278885195,6.532839700423048
0.1734537462814627,1.830383620897266,6.5268573982897955
0.17406449890921433,1.8300916427024438,6.5209306136567555
0.17467525153696598,1.8298024695435429,6.515056548023695
0.1752860041647176,1.8295160760566023,6.5092323962021785
0.17589675679246922,1.8292324353061395,6.503455353577189
0.17650750942022086,1.828951518821422,6.497722623339581
0.17711826204797246,1.8286732966369634,6.492031423669194
0.1777290146757241,1.828397737337102,6.486378994849284
0.17833976730347573,1.8281248081045223,6.480762606293253
0.17895051993122735,1.8278544747725558,6.475179563463289
0.179561272558979,1.8275867018811038,6.469627214663227
0.18017202518673062,1.8273214527359942,6.464102957685749
0.18078277781448224,1.8270586894716003,6.458604246296031
0.18139353044223389,1.8267983731165132,6.453128596534259
0.1820042830699855,1.8265404636620806,6.447673592818264
0.18261503569773715,1.8262849201335905,6.442236893830968
0.18322578832548878,1.8260317006638904,6.436816238175107
0.1838365409532404,1.825780762569222,6.431409449779949
0.18444729358099204,1.8255320624270304,6.426014443045081
0.18505804620874364,1.8252855561555354,6.4206292277071215
0.18566879883649529,1.8250411990948108,6.41525191341549
0.1862795514642469,1.824798946089142,6.409880714005565
0.18689030409199853,1.8245587515704151,6.404513951456701
0.18750105671975018,1.8243205696422944,6.3991500595247635
0.1881118093475018,1.824084354164945,6.393787587039682
0.18872256197525342,1.823850058840048,6.388425200858934
0.18933331460300507,1.8236176372958746,6.383061688469693
0.18994406723075669,1.8233870431721604,6.3776959602323435
0.19055481985850833,1.8231582302045524,6.372327051260775
0.19116557248625995,1.8229311523083764,6.366954122934356
0.19177632511401158,1.8227057636614978,6.36157646403837
0.19238707774176322,1.8224820187860393,6.356193491531076
0.19299783036951482,1.8222598726287276,6.350804750936475
0.19360858299726647,1.822039280639651,6.345409916361993
0.19421933562501809,1.8218201988492082,6.34000879014367
0.1948300882527697,1.821602583943042,6.334601302120028
0.19544084088052135,1.8213863933347547,6.329187508539423
0.19605159350827298,1.821171585236212,6.323767590604025
0.19666234613602462,1.820958118725252,6.318341852657801
0.19727309876377624,1.8207459538106194,6.312910720024009
0.19788385139152787,1.8205350514939624,6.307474736500754
0.1984946040192795,1.820325373828731,6.302034561523723
0.19910535664703113,1.8201168839758362,6.296590967005097
0.19971610927478275,1.819909546255928,6.291144833860776
0.20032686190253438,1.819703326198173,6.285697148236517
0.200937614530286,1.819498190585415,6.280248997446802
0.20154836715803764,1.8192941074956184,6.274801565638868
0.20215911978578927,1.8190910463395047,6.269356129197287
0.20276987241354089,1.8188889778943045,6.263914051903417
0.20338062504129253,1.8186878743335588,6.2584767798660454
0.20399137766904415,1.8184877092529166,6.253045836239318
0.2046021302967958,1.8182884576918883,6.247622815745286
0.20521288292454742,1.8180900961515296,6.242209379018382
0.20582363555229904,1.8178926026080304,6.236807246790359
0.2064343881800507,1.8176959565222168,6.2314181939335205
0.2070451408078023,1.8175001388449679,6.226044043381897
0.2076558934355539,1.817305132018566,6.220686659948852
0.20826664606330555,1.8171109199740212,6.215347944061113
0.20887739869105718,1.816917488124406,6.210029825428486
0.20948815131880882,1.8167248233542581,6.204734256668984
0.21009890394656044,1.8165329140051254,6.199463206909415
0.21070965657431207,1.8163417498573164,6.194218655381253
0.2113204092020637,1.8161513221079635,6.189002585030744
0.21193116182981533,1.8159616233454785,6.183816976164397
0.21254191445756698,1.8157726475205267,6.178663800147394
0.2131526670853186,1.815584389913625,6.173545013175831
0.21376341971307022,1.8153968470994977,6.168462550140281
0.21437417234082187,1.8152100169083245,6.163418318600391
