frequency,refractiveIndex,absorption
0.0006107526277516292,2.5222157529993323,0.0025737477870923283
0.0012215052555032584,2.5218237854846457,0.0102879105606591
0.0018322578832548875,2.521171752977475,0.023121296171066077
0.002443010511006517,2.520261514827467,0.04103874900384858
0.003053763138758146,2.519095652949613,0.06399139434995439
0.003664515766509775,2.5176774510603015,0.09191697543052121
0.004275268394261404,2.5160108685547984,0.1247402781446612
0.004886021022013034,2.514100509434953,0.16237363742374436
0.005496773649764663,2.511951586764152,0.20471751804609284
0.006107526277516292,2.509569883182207,0.25166116191321164
0.006718278905267922,2.5069617080556057,0.3030832931275735
0.00732903153301955,2.504133851867357,0.35885287175018293
0.00793978416077118,2.501093538465848,0.41882988685482164
0.008550536788522809,2.4978483757940193,0.48286617942966364
0.009161289416274438,2.4944063057094357,0.5508062857941685
0.009772042044026067,2.4907755534838305,0.6224882924844054
0.010382794671777697,2.4869645775389113,0.6977446939929889
0.010993547299529326,2.4829820199348114,0.7764032453075872
0.011604299927280955,2.4788366580809,0.8582878018511647
0.012215052555032585,2.474537358086877,0.9432191401618097
0.012825805182784214,2.4700930301172628,1.0310157534365987
0.013436557810535843,2.4655125860559233,1.1214946168785354
0.014047310438287471,2.4608048997307987,1.2144719186071062
0.0146580630660391,2.455978769893691,1.3097637527027095
0.015268815693790731,2.451042886096876,1.4071867717356066
0.01587956832154236,2.446005797558561,1.5065587968693923
0.01649032094929399,2.440875885063183,1.6076993843150238
0.017101073577045618,2.435661335901025,1.7104303475377203
0.01771182620479725,2.4303701218146228,1.8145762351794386
0.018322578832548876,2.4250099798874536,1.9199647651522678
0.018933331460300507,2.419588396283013,2.0264272157817187
0.019544084088052135,2.414112592719832,2.1337987752346783
0.020154836715803762,2.408589515549893,2.2419188507583434
0.020765589343555393,2.4030258272939276,2.35063133948552
0.02137634197130702,2.3974279004769996,2.459784862735194
0.021987094599058652,2.3918018136011416,2.5692329658585704
0.02259784722681028,2.3861533490882665,2.678834285756209
0.02320859985456191,2.380487993025615,2.7884526882267515
0.023819352482313542,2.374810936547465,2.897957377308255
0.02443010511006517,2.369127078690063,3.0072229787431777
0.025040857737816797,2.363441030561565,3.1161295996447844
0.025651610365568428,2.357757120674966,3.224562866369431
0.026262362993320056,2.3520794012988526,3.3324139425101835
0.026873115621071687,2.346411655688737,3.4395795288279283
0.027483868248823314,2.340757406069707,3.54596184682791
0.028094620876574942,2.335119922249759,3.651468607577875
0.028705373504326573,2.329502230751575,3.7560129672482905
0.0293161261320782,2.323907124359168,3.8595134707418075
0.029926878759829835,2.318337171984074,3.9618939846654193
0.030537631387581463,2.3127947287639783,4.063083620790147
0.03114838401533309,2.3072819463145016,4.163016651038239
0.03175913664308472,2.3018007830623346,4.261632414938339
0.03236988927083635,2.2963530145950575,4.3588752203968415
0.03298064189858798,2.2909402439696414,4.45469423854626
0.03359139452633961,2.2855639119279374,4.549043393352566
0.034202147154091235,2.2802253069733447,4.641881246590712
0.03481289978184286,2.2749255752682442,4.733170878731618
0.0354236524095945,2.2696657303168966,4.822879766225473
0.036034405037346125,2.264446662403134,4.910979655613756
0.03664515766509775,2.2592691477564824,4.997446434856613
0.03725591029284938,2.2541338574242644,5.082260002222059
0.037866662920601014,2.249041365830908,5.165404133049386
0.038477415548352635,2.2439921590089216,5.246866344670015
0.03908816817610427,2.238986642489089,5.326637759744147
0.039698920803855904,2.234025148840144,5.4047129682522215
0.040309673431607525,2.22910794485072,5.481089888363074
0.04092042605935916,2.2242352383486677,5.555769626388945
0.04153117868711079,2.219407184654911,5.628756336026297
0.04214193131486242,2.214623892670886,5.700057077075839
0.04275268394261404,2.2098854306003726,5.769681673828589
0.04336343657036568,2.2051918313080265,5.837642573303101
0.043974189198117304,2.2005430973184046,5.903954703515907
0.04458494182586893,2.1959392054604767,5.968635331968207
0.04519569445362056,2.1913801111638196,6.031703924530383
0.045806447081372194,2.1868657524136954,6.09318200490866
0.04641719970912382,2.182396053373161,6.153093014878122
0.04702795233687545,2.177970927681143,6.211462175467982
0.047638704964627084,2.173590281436186,6.26831634928662
0.048249457592378704,2.169254015876172,6.323683904174381
0.04886021022013034,2.1649620297648995,6.377594578372324
0.049470962847881966,2.160714221496862,6.430079347396373
0.050081715475633594,2.156510490931972,6.481170292804022
0.05069246810338522,2.1523507409723006,6.530900473040812
0.051303220731136856,2.1482348788931644,6.579303796550525
0.05191397335888848,2.1441628174410643,6.626414897330673
0.05252472598664011,2.1401344757111573,6.672269013111266
0.053135478614391746,2.136149779816957,6.716901866329678
0.05374623124214337,2.132208663365021,6.760349548069059
0.054356983869895,2.1283110677473402,6.802648405122601
0.05496773649764663,2.1244569422640396,6.843834930336947
0.05557848912539826,2.1206462440889093,6.88394565638276
0.056189241753149884,2.1168789380900663,6.923017053090347
0.05679999438090152,2.1131549965178977,6.961085428480215
0.057410747008653146,2.109474398572124,6.998186833608968
0.05802149963640477,2.1058371298595944,7.034356971341003
0.0586322522641564,2.102243181754079,7.069631109146218
0.059243004891908035,2.098692550669026,7.104043996013792
0.05985375751965967,2.09518523725385,7.13762978356103
0.06046451014741129,2.091721245523971,7.170421951405505
0.061075262775162925,2.0883005819344267,7.202453236858382
0.06168601540291455,2.0849232544064393,7.233755568984564
0.06229676803066618,2.0815892713159534,7.264360007066248
0.0629075206584178,2.0782986404526773,7.294296683494487
0.06351827328616944,2.0750513679577614,7.323594751102239
0.06412902591392107,2.07184745724781,7.352282334944818
0.0647397785416727,2.0686869079324555,7.380386488519528
0.06535053116942433,2.0655697147323493,7.4079331544104035
0.06596128379717596,2.062495866403921,7.434947129331812
0.0665720364249276,2.059465344676878,7.4614520335364265
0.06718278905267921,2.056478123210026,7.487470284545834
0.06779354168043085,2.0535341665704934,7.513023075150545
0.06840429430818247,2.0506334292411275,7.538130355621244
0.06901504693593409,2.047775854660442,7.562810820064687
0.06962579956368573,2.044961374299051,7.587081896849664
0.07023655219143736,2.0421899067762284,7.610959743022396
0.070847304819189,2.0394613570198716,7.634459242625255
0.07145805744694061,2.0367756154728203,7.657594008825231
0.07206881007469225,2.0341325573481064,7.680376389754073
0.07267956270244387,2.0315320419355007,7.702817477956219
0.0732903153301955,2.028973911961354,7.724927123336452
0.07390106795794714,2.0264579930035005,7.746713949494062
0.07451182058569876,2.0239840929626807,7.768185373325936
0.0751225732134504,2.0215520015917687,7.7893476277775955
0.07573332584120203,2.0191614900837536,7.810205787617165
0.07634407846895366,2.0168123107193052,7.830763798103683
0.07695483109670527,2.0145041965744457,7.8510245064175646
0.0775655837244569,2.012236861288723,7.8709896957193255
0.07817633635220854,2.010009998894051,7.890660121697448
0.07878708897996017,2.0078232837042056,7.910035551466323
0.07939784160771181,2.005676370264812,7.929114804670302
0.08000859423546343,2.0035688933634686,7.947895796648695
0.08061934686321505,2.0015004680995245,7.966375583514642
0.08123009949096668,1.999470690012848,7.984550408997024
0.08184085211871832,1.9974791352708152,8.002415752894985
0.08245160474646994,1.9955253609125796,8.019966380991162
0.08306235737422157,1.9936089051495722,8.037196396268117
0.08367311000197321,1.9917292877210349,8.054099291272285
0.08428386262972484,1.9898860103032976,8.070668001467237
0.08489461525747646,1.9880785569713417,8.086894959417085
0.08550536788522808,1.9863063947111446,8.102772149640924
0.08611612051297972,1.9845689739810934,8.118291163977432
0.08672687314073135,1.9828657293207541,8.133443257298358
0.08733762576848299,1.9811960800050834,8.148219403410792
0.08794837839623461,1.9795594307421165,8.162610350986055
0.08855913102398623,1.9779551724120559,8.17660667935542
0.08916988365173786,1.9763826828455688,8.19019885401223
0.0897806362794895,1.97484132763903,8.203377281661947
0.09039138890724112,1.9733304610043465,8.216132364662053
0.09100214153499275,1.9718494266509001,8.228454554696768
0.09161289416274439,1.970397558697089,8.240334405532705
0.09222364679049602,1.9689741826088427,8.25176262470448
0.09283439941824764,1.967578616162425,8.262730123982536
0.09344515204599926,1.9662101704287775,8.273228068479591
0.0940559046737509,1.9648681507765735,8.283247924253446
0.09466665730150253,1.9635518578911217,8.292781504272225
0.09527740992925417,1.962260588806191,8.30182101261011
0.09588816255700579,1.960993637945795,8.310359086747555
0.09649891518475741,1.9597502981729453,8.318388837857118
0.09710966781250904,1.9585298618423486,8.32590388896068
0.09772042044026068,1.9573316218540104,8.332898410851547
0.09833117306801231,1.9561548727047209,8.339367155682895
0.09894192569576393,1.9549989115343593,8.345305488129465
0.09955267832351557,1.9538630391640184,8.35070941404021
0.10016343095126719,1.952746561122938,8.355575606505978
0.10077418357901882,1.9516487886612832,8.359901429276325
0.10138493620677044,1.9505690397458604,8.363684957468555
0.10199568883452208,1.9495066400359033,8.36692499552113
0.10260644146227371,1.9484609238361286,8.369621092353277
0.10321719409002535,1.9474312350243772,8.371773553704005
0.10382794671777695,1.946416927951179,8.373383451631291
0.10443869934552859,1.9454173683087475,8.374452631164624
0.10504945197328022,1.9444319339669776,8.374983714113345
0.10566020460103186,1.9434600157741582,8.374980100044032
0.10627095722878349,1.9425010183202345,8.374445964449293
0.10688170985653511,1.9415543606605892,8.373386254142261
0.10749246248428675,1.9406194769984828,8.371806679919686
0.10810321511203837,1.9396958173244039,8.369713706546817
0.10871396773979,1.9387828480107916,8.367114540127282
0.10932472036754162,1.937880052360704,8.364017112929297
0.10993547299529326,1.9369869311092445,8.36043006575047
0.11054622562304489,1.9361030028766648,8.356362727909204
0.11115697825079653,1.9352278045722997,8.351825094961915
0.11176773087854816,1.934360891748635,8.346827804250594
0.11237848350629977,1.9335018389050125,8.341382108393145
0.1129892361340514,1.932650239740655,8.335499846836194
0.11359998876180304,1.9318057073568702,8.329193415594995
0.11421074138955467,1.9309678744084875,8.322475735310286
0.11482149401730629,1.9301363932047606,8.315360217759102
0.11543224664505793,1.9293109357601275,8.307860730957003
0.11604299927280955,1.928491193795412,8.299991562995203
0.11665375190056118,1.9276768786902216,8.291767384759245
0.1172645045283128,1.9268677213874283,8.283203211674971
0.11787525715606444,1.9260634722508072,8.274314364632984
0.11848600978381607,1.9252639008770445,8.265116430240244
0.1190967624115677,1.924468795863455,8.255625220549756
0.11970751503931934,1.923677964532895,8.24585673241738
0.12031826766707095,1.9228912326174818,8.235827106635185
0.12092902029482258,1.922108443902823,8.225552586987114
0.12153977292257422,1.9213294598345922,8.215049479372173
0.12215052555032585,1.9205541590893564,8.204334111136642
0.12276127817807747,1.919782437111658,8.193422790753244
0.1233720308058291,1.9190142056194266,8.182331767982292
0.12398278343358073,1.9182493920798527,8.171077194643901
0.12459353606133236,1.917487939157909,8.159675086127272
0.125204288689084,1.9167298041397696,8.14814128375719
0.1258150413168356,1.915974958333359,8.136491418131337
0.12642579394458725,1.915223386448352,8.124740873538713
0.12703654657233887,1.9144750859578972,8.112904753560146
0.12764729920009052,1.9137300664443873,8.10099784794886
0.12825805182784214,1.9129883489315596,8.089034600879407
0.12886880445559376,1.9122499652052214,8.077029080649153
0.1294795570833454,1.9115149571248555,8.064994950908346
0.13009030971109703,1.9107833759283437,8.052945443487507
0.13070106233884865,1.9100552815319953,8.040893332885164
0.13131181496660027,1.909330741828041,8.028850912471453
0.13192256759435192,1.9086098319816804,8.016829972455023
0.13253332022210354,1.9078926337297393,8.004841779655923
0.1331440728498552,1.9071792346829106,7.992897059117772
0.13375482547760678,1.9064697276334963,7.981005977587717
0.13436557810535843,1.9057642098704959,7.969178128884786
0.13497633073311005,1.9050627825038187,7.957422521171332
0.1355870833608617,1.9043655497992935,7.945747566134598
0.13619783598861332,1.9036726185261166,7.934161070081506
0.13680858861636494,1.902984097318234,7.922670226940824
0.13741934124411656,1.9023000960511371,7.911281613163268
0.13803009387186818,1.9016207252353963,7.900001184502973
0.13864084649961983,1.900946095428224,7.888834274659132
0.13925159912737145,1.900276316664242,7.877785595750292
0.1398623517551231,1.899611497906544,7.866859240590846
0.14047310438287472,1.898951746519061,7.856058686730778
0.14108385701062634,1.8982971677611364,7.845386802219949
0.141694609638378,1.897647864305149,7.83484585304889
0.1423053622661296,1.8970039357779158,7.824437512218595
0.14291611489388123,1.8963654783265234,7.81416287038336
0.14352686752163288,1.8957325842091635,7.804022448011981
0.1441376201493845,1.895105341411452,7.794016209004455
0.14474837277713615,1.894483833288625,7.7841435757020365
0.14535912540488774,1.8938681382339446,7.774403445223273
0.14596987803263936,1.893258329373537,7.764794207056864
0.146580630660391,1.8926544742878424,7.75531376183986
0.14719138328814263,1.892056634759745,7.745959541246755
0.14780213591589428,1.891464866549415,7.736728528914347
0.1484128885436459,1.8908792191957875,7.727617282324057
0.14902364117139752,1.8902997358445608,7.718621955563404
0.14963439379914917,1.8897264531025162,7.709738322885184
0.1502451464269008,1.8891594009178958,7.700961802983468
0.15085589905465244,1.8885986024865218,7.6922874839048525
0.15146665168240406,1.888044074183271,7.6837101485103165
0.15207740431015568,1.8874958255184628,7.675224300406141
0.15268815693790733,1.8869538591186656,7.666824190258795
0.15329890956565892,1.88641817073137,7.65850384241165
0.15390966219341054,1.8858887492529317,7.6502570817193165
0.1545204148211622,1.8853655767791286,7.642077560517051
0.1551311674489138,1.8848486286776402,7.633958785642915
0.15574192007666546,1.8843378736817114,7.62589414543159
0.15635267270441708,1.883833274004216,7.617876936599319
0.1569634253321687,1.883334785471307,7.609900390940914
0.15757417795992035,1.882842357674789,7.601957701761293
0.15818493058767197,1.8823559341423388,7.59404204996538
0.15879568321542362,1.8818754525246417,7.586146629733013
0.15940643584317524,1.8814008447985,7.57826467370499
0.16001718847092686,1.8809320374849492,7.5703894776131975
0.1606279410986785,1.8804689518813702,7.562514424283834
0.1612386937264301,1.8800115043066004,7.5546330069522325
0.16184944635418172,1.8795596063579953,7.546738851824319
0.16246019898193337,1.8791131651794009,7.538825739827092
0.163070951609685,1.8786720837389828,7.53088762749139
0.16368170423743664,1.8782362611158328,7.522918666913514
0.16429245686518826,1.8778055927942907,7.5149132247465245
0.16490320949293988,1.8773799709649024,7.506865900174928
0.16551396212069153,1.876959284830934,7.4987715418297665
0.16612471474844315,1.8765434209193788,7.490625263605398
0.1667354673761948,1.8761322633953808,7.482422459342951
0.16734622000394642,1.8757256943790226,7.47415881634907
0.16795697263169804,1.8753235942634299,7.465830327722646
0.16856772525944969,1.874925842033162,7.4574333034666145
0.16917847788720128,1.8745323155818716,7.448964380364986
0.16978923051495293,1.87414289202824,7.440420530610843
0.17039998314270455,1.8737574480292225,7.431799069174348
0.17101073577045617,1.8733758600896462,7.423097659903156
0.17162148839820782,1.8729980048672557,7.414314320353778
0.17223224102595944,1.872623759472303,7.4054474253548275
0.17284299365371106,1.8722530017608459,7.396495709307481
0.1734537462814627,1.8718856106209152,7.387458267234035
0.17406449890921433,1.8715214662507822,7.378334554586632
0.17467525153696598,1.871160450428572,7.369124385834314
0.1752860041647176,1.8708024467725286,7.359827931850862
0.17589675679246922,1.870447340991259,7.350445716126167
0.17650750942022086,1.8700950211233502,7.34097860983184
0.17711826204797246,1.8697453777657829,7.331427825772027
0.1777290146757241,1.8693983042906102,7.321794911254608
0.17833976730347573,1.869053697049435,7.312081739922441
0.17895051993122735,1.8687114555652466,7.302290502584291
0.179561272558979,1.8683714827112403,7.292423697091645
0.18017202518673062,1.8680336848762849,7.282484117306762
0.18078277781448224,1.8676979721167615,7.2724748412115465
0.18139353044223389,1.8673642582945345,7.262399218209882
0.1820042830699855,1.8670324612008782,7.252260855674718
0.18261503569773715,1.8667025026662196,7.242063604797519
0.18322578832548878,1.8663743086556208,7.23181154579534
0.1838365409532404,1.8660478093499557,7.22150897253412
0.18444729358099204,1.8657229392127979,7.211160376627796
0.18505804620874364,1.8653996370430779,7.200770431073786
0.18566879883649529,1.8650778460136097,7.1903439734842856
0.1862795514642469,1.8647575136956338,7.1798859889767055
0.18689030409199853,1.8644385920695734,7.169401592783885
0.18750105671975018,1.8641210375222241,7.158896012645288
0.1881118093475018,1.8638048108306586,7.148374571041593
0.18872256197525342,1.8634898771331505,7.137842667333389
0.18933331460300507,1.8631762058874584,7.127305759864316
0.18994406723075669,1.8628637708168585,7.116769348088204
0.19055481985850833,1.8625525498443287,7.106238954779344
0.19116557248625995,1.8622425250153312,7.095720108382913
0.19177632511401158,1.8619336824096528,7.085218325561786
0.19238707774176322,1.861626012042814,7.0747390939945545
0.19299783036951482,1.8613195077575466,7.0642878554774144
0.19360858299726647,1.8610141671058922,7.053869989381203
0.19421933562501809,1.8607099912224743,7.0434907965123985
0.1948300882527697,1.8604069846895182,7.033155483425434
0.19544084088052135,1.8601051553942123,7.022869147231212
0.19605159350827298,1.8598045143790034,7.012636760943339
0.19666234613602462,1.8595050756854483,7.002463159403928
0.19727309876377624,1.859206856192232,6.992353025824132
0.19788385139152787,1.8589098754479776,6.982310878976728
0.1984946040192795,1.8586141554994804,6.972341061070818
0.19910535664703113,1.8583197207159867,6.962447726340032
0.19971610927478275,1.8580265976101558,6.952634830369757
0.20032686190253438,1.8577348146563142,6.9429061201878435
0.200937614530286,1.8574444021066445,6.933265125139646
0.20154836715803764,1.8571553918058992,6.923715148566388
0.20215911978578927,1.8568678170052584,6.914259260301201
0.20276987241354089,1.8565817121759265,6.904900289996017
0.20338062504129253,1.8562971128230472,6.8956408212894456
0.20399137766904415,1.8560140553005031,6.886483186821499
0.2046021302967958,1.8557325766271684,6.877429464099817
0.20521288292454742,1.8554527143051376,6.868481472218965
0.20582363555229904,1.85517450614047,6.8596407694310955
0.2064343881800507,1.8548979900669356,6.8509086515635875
0.2070451408078023,1.8546232039732573,6.842286151277623
0.2076558934355539,1.8543501855343136,6.83377403815792
0.20826664606330555,1.8540789720467337,6.825372819622198
0.20887739869105718,1.8538096002693105,6.817082742636354
0.20948815131880882,1.8535421062686268,6.808903796217939
0.21009890394656044,1.8532765252702648,6.800835714710796
0.21070965657431207,1.8530128915159425,6.792877981808773
0.2113204092020637,1.8527512381269036,6.785029835305754
0.21193116182981533,1.8524915969738551,6.7772902725478845
0.21254191445756698,1.8522339985537195,6.769658056560441
0.2131526670853186,1.8519784718734507,6.7621317228216675
0.21376341971307022,1.851725044341124,6.75470958665222
0.21437417234082187,1.8514737416644995,6.747389751190976
