frequency,refractiveIndex,absorption
0.0006107526277516292,1.770244528010236,4.4927936414304705e-05
0.0012215052555032584,1.7702889420886154,0.0001791161075474215
0.0018322578832548875,1.7703628771871978,0.0004007793025013925
0.002443010511006517,1.7704662009164052,0.0007069478448483897
0.003053763138758146,1.7705987282477282,0.0010934760945091884
0.003664515766509775,1.7707602218304577,0.0015550543289314623
0.004275268394261404,1.7709503923986472,0.0020852239820241597
0.004886021022013034,1.7711688992680905,0.0026763962131091394
0.005496773649764663,1.7714153509231014,0.0033198737718081084
0.006107526277516292,1.7716893056927567,0.004005876118439428
0.006718278905267922,1.7719902725162269,0.0047235677530401195
0.00732903153301955,1.7723177117967788,0.005461089699516769
0.00793978416077118,1.7726710363439628,0.006205594084795491
0.008550536788522809,1.7730496124033055,0.006943281746068456
0.009161289416274438,1.7734527607729784,0.00765944279231415
0.009772042044026067,1.773879758006501,0.00833850003915378
0.010382794671777697,1.7743298377007761,0.00896405522912575
0.010993547299529326,1.7748021918683137,0.009518937941893789
0.011604299927280955,1.7752959723926143,0.009985257091916926
0.012215052555032585,1.7758102925654435,0.010344454903005432
0.012825805182784214,1.776344228704587,0.010577363242168422
0.013436557810535843,1.7768968218505299,0.010664262186921045
0.014047310438287471,1.7774670795403378,0.010584940692788801
0.0146580630660391,1.7780539776568147,0.010318759219659846
0.015268815693790731,1.7786564623508698,0.00984471416793659
0.01587956832154236,1.7792734520347173,0.009141503967370661
0.01649032094929399,1.7799038394434639,0.008187596653899537
0.017101073577045618,1.780546493762266,0.006961298761789037
0.01771182620479725,1.7812002628160821,0.0054408253509326595
0.018322578832548876,1.781863975318794,0.0036043709816443795
0.018933331460300507,1.782536443178198,0.0014301814420505645
0.019544084088052135,1.7832164638530872,-0.0011033739737621507
0.020154836715803762,1.7839028227584113,-0.004017729845283659
0.020765589343555393,1.7845942957142493,-0.007334051877494834
0.02137634197130702,1.7852896514339163,-0.011073164245519755
0.021987094599058652,1.7859876540465136,-0.0152554772577159
0.02259784722681028,1.7866870656486258,-0.0199009155672847
0.02320859985456191,1.7873866488798682,-0.02502884716673679
0.023819352482313542,1.7880851695166426,-0.030658013402353114
0.02443010511006517,1.7887813990780894,-0.03680646024856417
0.025040857737816797,1.7894741174381272,-0.043491471083267966
0.025651610365568428,1.7901621154372331,-0.050729501205961265
0.026262362993320056,1.790844197487241,-0.05853611433999191
0.026873115621071687,1.7915191841624742,-0.06692592135868926
0.027483868248823314,1.792185914770122,-0.07591252147258232
0.028094620876574942,1.7928432498928275,-0.08550844611121464
0.028705373504326573,1.793490073896175,-0.09572510572765562
0.0293161261320782,1.794125297393752,-0.10657273974855312
0.029926878759829835,1.7947478596624078,-0.1180603698839275
0.030537631387581463,1.7953567310002256,-0.13019575700343666
0.03114838401533309,1.795950915019829,-0.14298536177491947
0.03175913664308472,1.796529450869646,-0.15643430925073687
0.03236988927083635,1.7970914153757933,-0.17054635757440184
0.03298064189858798,1.7976359250975054,-0.1853238709668053
0.03359139452633961,1.798162138288972,-0.20076779713686976
0.034202147154091235,1.7986692567609548,-0.21687764924500666
0.03481289978184286,1.7991565276354506,-0.23365149253224232
0.0354236524095945,1.799623244987317,-0.25108593570869453
0.036034405037346125,1.8000687513667604,-0.2691761271783245
0.03664515766509775,1.8004924391972406,-0.28791575615615705
0.03725591029284938,1.8008937520435364,-0.3072970587154713
0.037866662920601014,1.8012721857452614,-0.32731082878162365
0.038477415548352635,1.8016272894115613,-0.3479464340684169
0.03908816817610427,1.8019586662732159,-0.3691918369327787
0.039698920803855904,1.802265974388885,-0.3910336201011961
0.040309673431607525,1.8025489272028035,-0.41345701720200034
0.04092042605935916,1.8028072939517867,-0.4364459480146928
0.04153117868711079,1.8030408999199978,-0.4599830583297435
0.04214193131486242,1.8032496265404774,-0.4840497642893332
0.04275268394261404,1.8034334113431782,-0.5086263010619421
0.04336343657036568,1.8035922477496045,-0.5336917756846107
0.043974189198117304,1.8037261847150634,-0.5592242238878578
0.04458494182586893,1.8038353262199007,-0.5852006707023718
0.04519569445362056,1.8039198306117914,-0.6115971946298656
0.045806447081372194,1.803979909801741,-0.6383889951461778
0.04641719970912382,1.8040158283169643,-0.6655504632905687
0.04702795233687545,1.8040279022144319,-0.6930552550837356
0.047638704964627084,1.8040164978592907,-0.7208763675053109
0.048249457592378704,1.8039820305729906,-0.7489862167526382
0.04886021022013034,1.8039249631562537,-0.7773567184950331
0.049470962847881966,1.8038458042926453,-0.8059593698298703
0.050081715475633594,1.8037451068387091,-0.8347653326437272
0.05069246810338522,1.8036234660071326,-0.8637455180764967
0.051303220731136856,1.8034815174496763,-0.892870671785865
0.05191397335888848,1.8033199352468612,-0.9221114597077615
0.05252472598664011,1.8031394298117136,-0.9514385540103281
0.053135478614391746,1.8029407457150257,-0.9808227189401219
0.05374623124214337,1.8027246594397193,-1.0102348962639678
0.054356983869895,1.802491977072175,-1.0396462900137013
0.05496773649764663,1.8022435319382193,-1.0690284502475702
0.05557848912539826,1.8019801821917825,-1.0983533555490828
0.056189241753149884,1.8017028083640367,-1.1275934939921992
0.05679999438090152,1.801412310880913,-1.1567219423106108
0.057410747008653146,1.8011096075567736,-1.1857124430192545
0.05802149963640477,1.8007956310719888,-1.2145394792463677
0.0586322522641564,1.8004713264419399,-1.2431783470457825
0.059243004891908035,1.8001376484849492,-1.2716052249714713
0.05985375751965967,1.7997955592963342,-1.2997972407083254
0.06046451014741129,1.7994460257356926,-1.3277325345660762
0.061075262775162925,1.799090016934237,-1.355390319656192
0.06168601540291455,1.7987285018287733,-1.3827509385854082
0.06229676803066618,1.798362446728711,-1.409795916512481
0.0629075206584178,1.7979928129221694,-1.436508010428425
0.06351827328616944,1.7976205543269914,-1.4628712545352505
0.06412902591392107,1.797246615192233,-1.4888710016095745
0.0647397785416727,1.7968719278553327,-1.5144939602534178
0.06535053116942433,1.7964974105599523,-1.5397282279464752
0.06596128379717596,1.7961239653391265,-1.5645633198278592
0.0665720364249276,1.7957524759680659,-1.588990193149014
0.06718278905267921,1.7953838059907838,-1.613001267350206
0.06779354168043085,1.7950187968241735,-1.636590439729813
0.06840429430818247,1.7946582659431458,-1.659753096683181
0.06901504693593409,1.7943030051500373,-1.682486120503431
0.06962579956368573,1.793953778931112,-1.7047878917479808
0.07023655219143736,1.7936113229029582,-1.7266582871839304
0.070847304819189,1.7932763423510474,-1.7480986733410322
0.07145805744694061,1.7929495108626994,-1.7691118957071534
0.07206881007469225,1.7926314690562395,-1.7897022636164783
0.07267956270244387,1.7923228234080508,-1.8098755308883923
0.0732903153301955,1.7920241451788719,-1.8296388722867467
0.07390106795794714,1.791735969440566,-1.849000855878737
0.07451182058569876,1.7914587942042082,-1.8679714113834478
0.0751225732134504,1.7911930796502988,-1.8865617946081934
0.07573332584120203,1.7909392474615542,-1.9047845480823742
0.07634407846895366,1.790697680258572,-1.9226534580059575
0.07695483109670527,1.790468721138481,-1.9401835076399048
0.0775655837244569,1.7902526733164343,-1.9573908272741392
0.07817633635220854,1.7900497998696425,-1.9742926409180002
0.07878708897996017,1.7898603235834514,-1.9909072098650422
0.07939784160771181,1.789684426898762,-2.0072537732936135
0.08000859423546343,1.7895222519598528,-2.023352486072868
0.08061934686321505,1.789373900761619,-2.039224353948831
0.08123009949096668,1.7892394353948833,-2.0548911662958007
0.08184085211871832,1.7891188783883443,-2.070375426623767
0.08245160474646994,1.7890122131455606,-2.085700281038193
0.08306235737422157,1.78891938447511,-2.100889444857411
0.08367311000197321,1.7888402992119272,-2.1159671275965812
0.08428386262972484,1.7887748269276706,-2.1309579565335697
0.08489461525747646,1.7887228007276648,-2.1458868990773166
0.08550536788522808,1.788684018132012,-2.1607791841637307
0.08611612051297972,1.78865824203799,-2.175660222907077
0.08672687314073135,1.7886452017609813,-2.1905555287410268
0.08733762576848299,1.788644594150739,-2.2054906372834244
0.08794837839623461,1.7886560847798416,-2.2204910261627697
0.08855913102398623,1.7886793092008688,-2.2355820350463844
0.08916988365173786,1.788713874268755,-2.2507887861096516
0.0897806362794895,1.7887593595245814,-2.2661361051873365
0.09039138890724112,1.7888153186369247,-2.281648443847184
0.09100214153499275,1.788881280896742,-2.297349802623992
0.09161289416274439,1.7889567527616206,-2.313263655651502
0.09222364679049602,1.789041219445124,-2.3294128769253
0.09283439941824764,1.7891341465467645,-2.345819668427375
0.09344515204599926,1.7892349817181572,-2.362505490337373
0.0940559046737509,1.7893431563606632,-2.3794909935512303
0.09466665730150253,1.7894580873498216,-2.3967959547216613
0.09527740992925417,1.7895791787818234,-2.4144392140255224
0.09588816255700579,1.789705823737113,-2.4324386158598026
0.09649891518475741,1.789837406056249,-2.4508109526546615
0.09710966781250904,1.789973302123087,-2.4695719119851587
0.09772042044026068,1.7901128826502932,-2.488736027152376
0.09833117306801231,1.7902555144622514,-2.508316631393923
0.09894192569576393,1.7904005622704235,-2.5283258158700064
0.09955267832351557,1.7905473904361635,-2.5487743915635965
0.10016343095126719,1.790695364716204,-2.569671855214128
0.10077418357901882,1.7908438539858813,-2.5910263593962632
0.10138493620677044,1.7909922319354645,-2.6128446868360817
0.10199568883452208,1.7911398787348214,-2.6351322290477146
0.10260644146227371,1.7912861826619684,-2.6578929693528606
0.10321719409002535,1.7914305416910465,-2.6811294703356814
0.10382794671777695,1.7915723650354367,-2.7048428657654875
0.10443869934552859,1.791711074641949,-2.7290328570069504
0.10504945197328022,1.7918461066320939,-2.7536977139204803
0.10566020460103186,1.7919769126867222,-2.7788342802386024
0.10627095722878349,1.7921029613704536,-2.804437983390285
0.10688170985653511,1.7922237393925782,-2.8305028487277553
0.10749246248428675,1.792338752801337,-2.8570215180948417
0.10810321511203837,1.7924475281086747,-2.883985272661242
0.10871396773979,1.792549613342896,-2.911384059931733
0.10932472036754162,1.792644579026804,-2.9392065248242583
0.10993547299529326,1.792732019079305,-2.9674400446968927
0.11054622562304489,1.7928115516385617,-2.996070768191621
0.11115697825079653,1.7928828198052424,-3.025083657745518
0.11176773087854816,1.7929454923045176,-3.05446253561418
0.11237848350629977,1.7929992640658774,-3.0841901332341894
0.1129892361340514,1.7930438567200533,-3.1142481437442933
0.11359998876180304,1.7930790190126251,-3.1446172774739405
0.11421074138955467,1.7931045271341688,-3.175277320199835
0.11482149401730629,1.7931201849671479,-3.2062071939592496
0.11543224664505793,1.793125824249894,-3.237385020207282
0.11604299927280955,1.793121304658427,-3.2687881850936336
0.11665375190056118,1.7931065138070594,-3.3003934066313945
0.1172645045283128,1.793081367168969,-3.3321768035272945
0.11787525715606444,1.7930458079182345,-3.364113965435695
0.11848600978381607,1.7929998066950112,-3.3961800244000386
0.1190967624115677,1.7929433612957608,-3.428349727241757
0.11970751503931934,1.7928764962906751,-3.4605975086568255
0.12031826766707095,1.792799262570637,-3.492897564779737
0.12092902029482258,1.7927117368262315,-3.5252239269783523
0.12153977292257422,1.7926140209614978,-3.5575505356426267
0.12215052555032585,1.7925062414453072,-3.58985131373438
0.12276127817807747,1.7923885486033342,-3.622100239870525
0.1233720308058291,1.7922611158537947,-3.6542714207135245
0.12398278343358073,1.79212413889017,-3.6863391624535415
0.12459353606133236,1.7919778348142934,-3.7182780411661365
0.125204288689084,1.7918224412232222,-3.750062971843602
0.1258150413168356,1.791658215253432,-3.781669275897293
0.12642579394458725,1.7914854325858585,-3.8130727469452577
0.12703654657233887,1.7913043864154454,-3.8442497146990346
0.12764729920009052,1.7911153863888076,-3.875177106778583
0.12825805182784214,1.79091875751368,-3.905832508291011
0.12886880445559376,1.7907148390437975,-3.936194219017853
0.1294795570833454,1.7905039833428698,-3.9662413080670818
0.13009030971109703,1.7902865547312725,-3.995953665854217
0.13070106233884865,1.7900629283190148,-4.025312053290337
0.13131181496660027,1.789833488828598,-4.054298148059035
0.13192256759435192,1.7895986294111887,-4.08289458788283
0.13253332022210354,1.7893587504595874,-4.111085010683306
0.1331440728498552,1.7891142584213167,-4.138854091553621
0.13375482547760678,1.788865564615133,-4.16618757647082
0.13436557810535843,1.7886130840541496,-4.193072312685842
0.13497633073311005,1.7883572342786418,-4.219496275741626
0.1355870833608617,1.7880984342015698,-4.245448593076849
0.13619783598861332,1.7878371029697033,-4.27091956418392
0.13680858861636494,1.7875736588430948,-4.295900677302606
0.13741934124411656,1.7873085180956574,-4.32038462263533
0.13803009387186818,1.787042093939286,-4.344365302085257
0.13864084649961983,1.7867747954740765,-4.367837835521979
0.13925159912737145,1.7865070266668752,-4.390798563594829
0.1398623517551231,1.7862391853603692,-4.413245047117028
0.14047310438287472,1.7859716623148119,-4.4351760630576065
0.14108385701062634,1.785704840284278,-4.456591597181379
0.141694609638378,1.7854390931292954,-4.477492833390723
0.1423053622661296,1.7851747849675175,-4.497882139827019
0.14291611489388123,1.784912269364011,-4.517763051797506
0.14352686752163288,1.7846518885625675,-4.537140251604415
0.1441376201493845,1.7843939727593687,-4.556019545354483
0.14474837277713615,1.7841388394201545,-4.574407836839581
0.14535912540488774,1.7838867926419775,-4.59231309858156
0.14596987803263936,1.7836381225604412,-4.6097443401428295
0.146580630660391,1.7833931048032343,-4.626711573810788
0.14719138328814263,1.7831519999906595,-4.64322577776682
0.14780213591589428,1.7829150532836868,-4.659298856860711
0.1484128885436459,1.7826824939799932,-4.6749436011118
0.14902364117139752,1.782454535158295,-4.690173642067334
0.14963439379914917,1.7822313733711805,-4.705003407149732
0.1502451464269008,1.7820131883865276,-4.719448072131211
0.15085589905465244,1.7818001429774737,-4.73352351187645
0.15146665168240406,1.7815923827608053,-4.747246249499018
0.15207740431015568,1.7813900360835015,-4.760633404080301
0.15268815693790733,1.7811932139570712,-4.773702637102355
0.15329890956565892,1.7810020100392194,-4.78647209774849
0.15390966219341054,1.7808165006622483,-4.798960367229565
0.1545204148211622,1.7806367449075213,-4.811186402294528
0.1551311674489138,1.7804627847251977,-4.823169478084403
0.15574192007666546,1.7802946450983614,-4.834929130493209
0.15635267270441708,1.780132334250529,-4.846485098197833
0.1569634253321687,1.7799758438954991,-4.857857264519289
0.15757417795992035,1.7798251495283344,-4.86906559927946
0.15818493058767197,1.7796802107562237,-4.880130100816715
0.15879568321542362,1.7795409716678732,-4.891070738321219
0.15940643584317524,1.7794073612399837,-4.90190739465173
0.16001718847092686,1.7792792937793025,-4.9126598097945156
0.1606279410986785,1.7791566693986522,-4.9233475251190155
0.1612386937264301,1.7790393745252595,-4.933989828588352
0.16184944635418172,1.778927282439659,-4.944605701074675
0.16246019898193337,1.7788202538433528,-4.955213763928476
0.163070951609685,1.778718137453375,-4.965832227947565
0.16368170423743664,1.7786207706218249,-4.976478843884969
0.16429245686518826,1.7785279799784024,-4.987170854633508
0.16490320949293988,1.7784395820939325,-4.997924949216105
0.16551396212069153,1.7783553841628001,-5.008757218708633
0.16612471474844315,1.7782751847022171,-5.019683114214945
0.1667354673761948,1.778198774266196,-5.030717407005022
0.16734622000394642,1.778125936172058,-5.041874150926459
0.16795697263169804,1.77805644723733,-5.0531666471858925
0.16856772525944969,1.7779900785248577,-5.0646074115934825
0.16917847788720128,1.7779265960939106,-5.076208144356222
0.16978923051495293,1.777865761755145,-5.0879797024943665
0.17039998314270455,1.7778073338272113,-5.099932074952201
0.17101073577045617,1.7777510678928625,-5.112074360460187
0.17162148839820782,1.7776967175524019,-5.124414748203025
0.17223224102595944,1.7776440351723788,-5.13696050133358
0.17284299365371106,1.7775927726274157,-5.149717943367763
0.1734537462814627,1.777542682033155,-5.162692447484873
0.17406449890921433,1.7774935164682908,-5.175888428748461
0.17467525153696598,1.7774450306837537,-5.189309339254952
0.1752860041647176,1.7773969817971678,-5.202957666204608
0.17589675679246922,1.7773491299707085,-5.216834932888037
0.17650750942022086,1.7773012390706355,-5.230941702560493
0.17711826204797246,1.7772530773067956,-5.245277585179856
0.1777290146757241,1.777204417850457,-5.259841246967049
0.17833976730347573,1.7771550394290028,-5.274630422738565
0.17895051993122735,1.777104726895958,-5.289641930962181
0.179561272558979,1.7770532717750676,-5.304871691462997
0.18017202518673062,1.7770004727771023,-5.320314745714733
0.18078277781448224,1.7769461362882741,-5.3359652796323696
0.18139353044223389,1.7768900768291618,-5.351816648779088
0.1820042830699855,1.7768321174831927,-5.367861405894508
0.18261503569773715,1.7767720902938176,-5.3840913306429306
0.18322578832548878,1.776709836629633,-5.4004974614715096
0.1838365409532404,1.7766452075167816,-5.417070129469553
0.18444729358099204,1.7765780639381006,-5.433798994106666
0.18505804620874364,1.7765082770985834,-5.45067308072643
0.18566879883649529,1.7764357286568353,-5.467680819669053
0.1862795514642469,1.7763603109222754,-5.4848100868888
0.18689030409199853,1.7762819270180148,-5.502048245930945
0.18750105671975018,1.7762004910093538,-5.519382191128589
0.1881118093475018,1.7761159279980532,-5.536798391877377
0.18872256197525342,1.7760281741825188,-5.554282937845506
0.18933331460300507,1.7759371768842418,-5.571821584970161
0.18994406723075669,1.7758428945408693,-5.589399802098091
0.19055481985850833,1.7757452966664022,-5.607002818117582
0.19116557248625995,1.7756443637791057,-5.624615669438371
0.19177632511401158,1.7755400872977924,-5.64222324766924
0.19238707774176322,1.775432469407245,-5.659810347348385
0.19299783036951482,1.7753215228936106,-5.6773617135786365
0.19360858299726647,1.7752072709506794,-5.694862089425938
0.19421933562501809,1.7750897469580311,-5.712296262937912
0.1948300882527697,1.77496899423211,-5.729649113643519
0.19544084088052135,1.7748450657513448,-5.746905658396085
0.19605159350827298,1.7747180238564935,-5.7640510964283
0.19666234613602462,1.7745879399274407,-5.781070853488144
0.19727309876377624,1.774454894037749,-5.797950624930335
0.19788385139152787,1.77431897458827,-5.8146764176418815
0.1984946040192795,1.7741802779212055,-5.831234590685877
0.19910535664703113,1.7740389079160268,-5.847611894549572
0.19971610927478275,1.7738949755686706,-5.8637955088929115
0.20032686190253438,1.7737485985555046,-5.879773078693762
0.200937614530286,1.773599900783541,-5.8955327486956115
0.20154836715803764,1.7734490119283781,-5.911063196068246
0.20215911978578927,1.7732960669614408,-5.926353661196815
0.20276987241354089,1.7731412056679976,-5.941393976523034
0.20338062504129253,1.7729845721575126,-5.956174593366427
0.20399137766904415,1.7728263143678504,-5.970686606663087
0.2046021302967958,1.7726665835648663,-5.984921777561609
0.20521288292454742,1.7725055338388966,-5.998872553828079
0.20582363555229904,1.7723433215996558,-6.012532088012018
0.2064343881800507,1.7721801050710169,-6.025894253341955
0.2070451408078023,1.7720160437871537,-6.038953657313362
0.2076558934355539,1.7718512980914969,-6.051705652949435
0.20826664606330555,1.7716860286398841,-6.06414634771935
