frequency,refractiveIndex,absorption
0.0006107526277516292,1.7434231565030855,-0.0001131506395508052
0.0012215052555032584,1.743439527210863,-0.0004527763628442332
0.0018322578832548875,1.7434667810821571,-0.0010193980323600696
0.002443010511006517,1.7435048722064672,-0.0018138819149412014
0.003053763138758146,1.7435537364130091,-0.0028374369288741113
0.003664515766509775,1.7436132913747047,-0.004091610795840276
0.004275268394261404,1.7436834367417924,-0.005578285103830991
0.004886021022013034,1.743764054305157,-0.007299669288896261
0.005496773649764663,1.7438550081893358,-0.009258293545417491
0.006107526277516292,1.7439561450751748,-0.011457000676510964
0.006718278905267922,1.7440672944520823,-0.01389893689806172
0.00732903153301955,1.7441882688999177,-0.01658754161188574
0.00793978416077118,1.7443188644003067,-0.019526536165595226
0.008550536788522809,1.7444588606774885,-0.022719911618841838
0.009161289416274438,1.7446080215684232,-0.026171915537820226
0.009772042044026067,1.7447660954220996,-0.029887037842206598
0.010382794671777697,1.7449328155278758,-0.03386999573101134
0.010993547299529326,1.7451079005726338,-0.03812571771631513
0.011604299927280955,1.7452910551264553,-0.04265932679618462
0.012215052555032585,1.7454819701566089,-0.047476122801008915
0.012825805182784214,1.7456803235694165,-0.05258156394950649
0.013436557810535843,1.7458857807796053,-0.05798124765404078
0.014047310438287471,1.7460979953067286,-0.06368089061709065
0.0146580630660391,1.7463166093980091,-0.06968630826362149
0.015268815693790731,1.7465412546771097,-0.07600339355714873
0.01587956832154236,1.7467715528180385,-0.08263809524971139
0.01649032094929399,1.7470071162434928,-0.08959639561906922
0.017101073577045618,1.7472475488467394,-0.09688428774913772
0.01771182620479725,1.747492446736083,-0.1045077524124069
0.018322578832548876,1.7477413990009443,-0.11247273461584037
0.018933331460300507,1.7479939884983275,-0.12078511987438623
0.019544084088052135,1.748249792658509,-0.12945071027880814
0.020154836715803762,1.7485083843086218,-0.1384752004267906
0.020765589343555393,1.7487693325126403,-0.14786415328896302
0.02137634197130702,1.749032203426334,-0.15762297608305026
0.021987094599058652,1.7492965611654923,-0.16775689623188006
0.02259784722681028,1.7495619686857202,-0.17827093748229686
0.02320859985456191,1.749827988671981,-0.1891698962637931
0.023819352482313542,1.7500941844359656,-0.20045831836669767
0.02443010511006517,1.7503601208193247,-0.21214047602110528
0.025040857737816797,1.7506253651005714,-0.22422034545783157
0.025651610365568428,1.7508894879036168,-0.23670158503370212
0.026262362993320056,1.751152064105572,-0.24958751400306578
0.026873115621071687,1.7514126737416067,-0.26288109201725623
0.027483868248823314,1.751670902904394,-0.2765848994327859
0.028094620876574942,1.751926344635783,-0.2907011185087381
0.028705373504326573,1.7521785998082169,-0.3052315155710922
0.0293161261320782,1.7524272779933985,-0.3201774242210677
0.029926878759829835,1.7526719983156458,-0.3355397296617896
0.030537631387581463,1.75291239028747,-0.3513188542145015
0.03114838401533309,1.753148094624788,-0.36751474409319834
0.03175913664308472,1.7533787640392742,-0.3841268575027385
0.03236988927083635,1.75360406400537,-0.4011541541212326
0.03298064189858798,1.7538236734994508,-0.4185950860240154
0.03359139452633961,1.7540372857087947,-0.43644759010118656
0.034202147154091235,1.7542446087079853,-0.4547090820159011
0.03481289978184286,1.7544453661004629,-0.47337645174561804
0.0354236524095945,1.7546392976230896,-0.49244606074226654
0.036034405037346125,1.7548261597116017,-0.511913740741939
0.03664515766509775,1.7550057260250262,-0.5317747942482074
0.03725591029284938,1.755177787927174,-0.5520239967070334
0.037866662920601014,1.7553421549235437,-0.5726556003843598
0.038477415548352635,1.755498655052057,-0.5936633399510179
0.03908816817610427,1.755647135226207,-0.6150404397731624
0.039698920803855904,1.755787461529384,-0.6367796228982816
0.040309673431607525,1.7559195194593331,-0.6588731217215833
0.04092042605935916,1.7560432141217748,-0.6813126903092741
0.04153117868711079,1.7561584703725734,-0.7040896183495763
0.04214193131486242,1.7562652329078206,-0.7271947466945627
0.04275268394261404,1.7563634663016197,-0.7506184844498667
0.04336343657036568,1.7564531549912994,-0.7743508275630541
0.043974189198117304,1.75653430321022,-0.7983813788548697
0.04458494182586893,1.7566069348683517,-0.8226993694316362
0.04519569445362056,1.7566710933810983,-0.8472936814119125
0.045806447081372194,1.7567268414469706,-0.8721528718945023
0.04641719970912382,1.7567742607749541,-0.8972651980905171
0.04702795233687545,1.7568134517625182,-0.9226186435375694
0.047638704964627084,1.7568445331255023,-0.9482009453091338
0.048249457592378704,1.7568676414811695,-0.9739996221296249
0.04886021022013034,1.7568829308859277,-1.0000020033016237
0.049470962847881966,1.7568905723294188,-1.0261952583486007
0.050081715475633594,1.756890753186691,-1.0525664272749704
0.05069246810338522,1.7568836766304812,-1.0791024513418674
0.051303220731136856,1.7568695610055234,-1.1057902042577823
0.05191397335888848,1.7568486391671916,-1.1326165236794283
0.05252472598664011,1.756821157786593,-1.159568242919938
0.053135478614391746,1.7567873766245523,-1.1866322227602304
0.05374623124214337,1.7567475677768598,-1.213795383259723
0.054356983869895,1.7567020148932717,-1.2410447354639185
0.05496773649764663,1.7566510123727868,-1.2683674129070164
0.05557848912539826,1.7565948645377818,-1.2957507028092654
0.056189241753149884,1.756533884789599,-1.323182076871384
0.05679999438090152,1.7564683947481796,-1.3506492215692756
0.057410747008653146,1.7563987233783815,-1.378140067856793
0.05802149963640477,1.7563252061055723,-1.4056428201852942
0.0586322522641564,1.7562481839231032,-1.4331459847530332
0.059243004891908035,1.756168002494203,-1.4606383969009686
0.05985375751965967,1.756085011250868,-1.4881092475742668
0.06046451014741129,1.755999562492192,-1.515548108773405
0.061075262775162925,1.755912010484578,-1.5429449579231074
0.06168601540291455,1.755822710566216,-1.5702902010900317
0.06229676803066618,1.7557320182581564,-1.5975746949862226
0.0629075206584178,1.755640288384149,-1.6247897676985963
0.06351827328616944,1.7555478742015127,-1.6519272380891674
0.06412902591392107,1.755455126545022,-1.6789794338160302
0.0647397785416727,1.7553623929858562,-1.7059392079289428
0.06535053116942433,1.7552700170075388,-1.732799953997651
0.06596128379717596,1.755178337200648,-1.759555619737026
0.0665720364249276,1.7550876864780363,-1.78620071909608
0.06718278905267921,1.7549983913122609,-1.8127303427826231
0.06779354168043085,1.754910770996661,-1.839140167201789
0.06840429430818247,1.7548251369316121,-1.8654264617877263
0.06901504693593409,1.7547417919373485,-1.8915860947147047
0.06962579956368573,1.7546610295944824,-1.9176165369782332
0.07023655219143736,1.7545831336135442,-1.9435158648379942
0.070847304819189,1.7545083772345587,-1.9692827606231564
0.07145805744694061,1.7544370226576258,-1.994916511900855
0.07206881007469225,1.7543693205054858,-2.0204170090137223
0.07267956270244387,1.7543055093188158,-2.0457847409985
0.0732903153301955,1.7542458150850453,-2.0710207898970863
0.07390106795794714,1.7541904508013333,-2.0961268234800876
0.07451182058569876,1.7541396160722393,-2.1211050864031127
0.0751225732134504,1.7540934967426636,-2.14595838982091
0.07573332584120203,1.7540522645663983,-2.170690099488121
0.07634407846895366,1.7540160769106818,-2.195304122379104
0.07695483109670527,1.7539850764969966,-2.2198048918615974
0.0775655837244569,1.7539593911783262,-2.2441973514632334
0.07817633635220854,1.7539391337530128,-2.2684869372732286
0.07878708897996017,1.7539244018152318,-2.292679559024343
0.07939784160771181,1.7539152776421298,-2.3167815799030373
0.08000859423546343,1.753911828117504,-2.3407997951402164
0.08061934686321505,1.753914104691937,-2.3647414094354358
0.08123009949096668,1.7539221433791081,-2.3886140132739806
0.08184085211871832,1.7539359647880945,-2.4124255581946485
0.08245160474646994,1.7539555741912878,-2.436184331072445
0.08306235737422157,1.7539809616275135,-2.4598989274820515
0.08367311000197321,1.7540121020399484,-2.4835782242084306
0.08428386262972484,1.7540489554482703,-2.5072313509770843
0.08489461525747646,1.7540914671544636,-2.5308676614753898
0.08550536788522808,1.7541395679816822,-2.55449670374085
0.08611612051297972,1.7541931745453718,-2.5781281899930923
0.08672687314073135,1.7542521895559857,-2.601771965989057
0.08733762576848299,1.7543165021523937,-2.6254379799815557
0.08794837839623461,1.75438598826511,-2.649136251365284
0.08855913102398623,1.7544605110083762,-2.6728768390926265
0.08916988365173786,1.754539921100142,-2.6966698099458113
0.0897806362794895,1.7546240573087728,-2.7205252067508217
0.09039138890724112,1.7547127469254415,-2.744453016621607
0.09100214153499275,1.7548058062609588,-2.7684631393209758
0.09161289416274439,1.754903041165796,-2.7925653558281724
0.09222364679049602,1.7550042475720535,-2.816769297199595
0.09283439941824764,1.7551092120559175,-2.8410844138136575
0.09344515204599926,1.7552177124192978,-2.865519945084739
0.0940559046737509,1.7553295182891149,-2.8900848897364684
0.09466665730150253,1.7554443917327471,-2.9147879767197145
0.09527740992925417,1.7555620878881328,-2.9396376368592367
0.09588816255700579,1.7556823556068544,-2.9646419753151614
0.09649891518475741,1.7558049381086338,-2.989808744940222
0.09710966781250904,1.75592957364558,-3.0151453206112557
0.09772042044026068,1.756055996174419,-3.0406586746160573
0.09833117306801231,1.7561839360351035,-3.066355353165823
0.09894192569576393,1.756313120633948,-3.0922414541090584
0.09955267832351557,1.7564432751296128,-3.1183226059129567
0.10016343095126719,1.756574123120114,-3.1446039479785823
0.10077418357901882,1.7567053873291258,-3.1710901123504636
0.10138493620677044,1.7568367902897573,-3.1977852068778456
0.10199568883452208,1.7569680550240916,-3.2246927998800317
0.10260644146227371,1.7570989057166324,-3.251815906364995
0.10321719409002535,1.7572290683800451,-3.27915697584351
0.10382794671777695,1.7573582715113178,-3.306717881777453
0.10443869934552859,1.7574862467367782,-3.3344999126965704
0.10504945197328022,1.7576127294442476,-3.362503765009649
0.10566020460103186,1.7577374594006774,-3.3907295375348454
0.10627095722878349,1.7578601813537855,-3.419176727763799
0.10688170985653511,1.757980645616068,-3.447844229872267
0.10749246248428675,1.7580986086297716,-3.476730334482448
0.10810321511203837,1.7582138335114317,-3.5058327301759253
0.10871396773979,1.7583260905745937,-3.535148506751721
0.10932472036754162,1.758435157829455,-3.5646741602183054
0.10993547299529326,1.7585408214582865,-3.594405599499611
0.11054622562304489,1.7586428762654338,-3.6243381548354185
0.11115697825079653,1.7587411261009507,-3.6544665878433715
0.11176773087854816,1.758835384256867,-3.684785103211295
0.11237848350629977,1.75892547383525,-3.715287361979283
0.1129892361340514,1.7590112280873307,-3.7459664963658605
0.11359998876180304,1.7590924907229726,-3.7768151260904976
0.11421074138955467,1.7591691161899583,-3.807825376136786
0.11482149401730629,1.7592409699226281,-3.8389888958970824
0.11543224664505793,1.7593079285594326,-3.8702968796376287
0.11604299927280955,1.7593698801292188,-3.9017400882142024
0.11665375190056118,1.7594267242060038,-3.9333088719696505
0.1172645045283128,1.7594783720321823,-3.9649931947385806
0.11787525715606444,1.7595247466102029,-3.9967826588810667
0.11848600978381607,1.7595657827628233,-4.028666531266503
0.1190967624115677,1.7596014271621219,-4.0606337701252
0.11970751503931934,1.7596316383276351,-4.092673052681206
0.12031826766707095,1.759656386593958,-4.124772803482509
0.12092902029482258,1.7596756540483167,-4.156921223339092
0.12153977292257422,1.7596894344386718,-4.189106318779798
0.12215052555032585,1.7596977330529762,-4.2213159319399995
0.12276127817807747,1.7597005665703558,-4.253537770787285
0.1233720308058291,1.759697962884957,-4.285759439596614
0.12398278343358073,1.7596899609033394,-4.317968469584415
0.12459353606133236,1.7596766103163557,-4.350152349611087
0.125204288689084,1.759657971346472,-4.382298556864467
0.1258150413168356,1.7596341144716006,-4.414394587434367
0.12642579394458725,1.7596051201265042,-4.4464279866931955
0.12703654657233887,1.759571078382923,-4.478386379397574
0.12764729920009052,1.7595320886095966,-4.510257499426997
0.12825805182784214,1.7594882591133885,-4.5420292190791125
0.12886880445559376,1.7594397067627563,-4.573689577842366
0.1294795570833454,1.7593865565948288,-4.6052268105705885
0.13009030971109703,1.7593289414073898,-4.636629374984895
0.13070106233884865,1.7592670013370633,-4.667885978432693
0.13131181496660027,1.7592008834250148,-4.698985603836134
0.13192256759435192,1.7591307411715231,-4.729917534764403
0.13253332022210354,1.759056734080702,-4.760671379570203
0.1331440728498552,1.7589790271967578,-4.7912370945301745
0.13375482547760678,1.758897790633064,-4.821605005936833
0.13436557810535843,1.7588131990953968,-4.851765831089273
0.13497633073311005,1.7587254314006378,-4.881710698135992
0.1355870833608617,1.758634669992213,-4.911431164726599
0.13619783598861332,1.7585411004535938,-4.940919235430472
0.13680858861636494,1.7584449110210445,-4.970167377888205
0.13741934124411656,1.7583462920969284,-4.999168537661594
0.13803009387186818,1.7582454357647146,-5.027916151754392
0.13864084649961983,1.7581425353069062,-5.056404160777179
0.13925159912737145,1.758037784727018,-5.084627019737785
0.1398623517551231,1.7579313782767352,-5.112579707435423
0.14047310438287472,1.7578235099893251,-5.140257734449931
0.14108385701062634,1.7577143732203662,-5.167657149710244
0.141694609638378,1.7576041601967878,-5.194774545640284
0.1423053622661296,1.7574930615752264,-5.221607061876052
0.14291611489388123,1.7573812660105943,-5.248152387555908
0.14352686752163288,1.7572689597357802,-5.274408762188513
0.1441376201493845,1.7571563261533498,-5.300374975104281
0.14474837277713615,1.757043545440019,-5.326050363502781
0.14535912540488774,1.7569307941647092,-5.351434809109919
0.14596987803263936,1.7568182449208904,-5.376528733461722
0.146580630660391,1.7567060659738931,-5.401333091836881
0.14719138328814263,1.7565944209238498,-5.4258493658600635
0.14780213591589428,1.7564834683848403,-5.4500795548044145
0.1484128885436459,1.7563733616807855,-5.474026165622425
0.14902364117139752,1.7562642485586266,-5.497692201737872
0.14963439379914917,1.7561562709192113,-5.521081150635136
0.1502451464269008,1.7560495645663248,-5.544196970282574
0.15085589905465244,1.7559442589742273,-5.5670440744335
0.15146665168240406,1.7558404770740164,-5.589627316845833
0.15207740431015568,1.7557383350590972,-5.611951974467416
0.15268815693790733,1.7556379422099921,-5.634023729635979
0.15329890956565892,1.7555394007386669,-5.655848651343284
0.15390966219341054,1.7554428056525258,-5.677433175615759
0.1545204148211622,1.7553482446381588,-5.698784085069188
0.1551311674489138,1.7552557979648946,-5.719908487690369
0.15574192007666546,1.7551655384081732,-5.740813794906689
0.15635267270441708,1.7550775311926732,-5.76150769900313
0.1569634253321687,1.7549918339551358,-5.781998149949012
0.15757417795992035,1.7549084967267436,-5.802293331695212
0.15818493058767197,1.754827561934867,-5.822401638009886
0.15879568321542362,1.7547490644240045,-5.842331647914866
0.15940643584317524,1.7546730314955838,-5.862092100792173
0.16001718847092686,1.7545994829664227,-5.8816918712235395
0.1606279410986785,1.7545284312454068,-5.901139943636452
0.1612386937264301,1.7544598814280696,-5.920445386820188
0.16184944635418172,1.7543938314086183,-5.939617328383559
0.16246019898193337,1.7543302720089529,-5.958664929221486
0.163070951609685,1.7542691871241858,-5.977597358059961
0.16368170423743664,1.7542105538841062,-5.996423766147953
0.16429245686518826,1.7541543428300308,-6.015153262164307
0.16490320949293988,1.7541005181064375,-6.033794887406438
0.16551396212069153,1.7540490376667282,-6.052357591328921
0.16612471474844315,1.7539998534924635,-6.070850207496654
0.1667354673761948,1.753952911825363,-6.089281430018097
0.16734622000394642,1.753908153411339,-6.107659790521138
0.16795697263169804,1.7538655137558228,-6.125993635733625
0.16856772525944969,1.753824923389593,-6.144291105728996
0.16917847788720128,1.7537863081442924,-6.162560112895096
0.16978923051495293,1.7537495894368562,-6.180808321681147
0.17039998314270455,1.7537146845619636,-6.1990431291794295
0.17101073577045617,1.753681506991679,-6.217271646589348
0.17162148839820782,1.7536499666814305,-6.235500681616251
0.17223224102595944,1.7536199703813993,-6.253736721849697
0.17284299365371106,1.75359142195249,-6.27198591916406
0.1734537462814627,1.7535642226859465,-6.290254075182175
0.17406449890921433,1.7535382716257173,-6.308546627839988
0.17467525153696598,1.753513465892696,-6.326868639084728
0.1752860041647176,1.753489701009915,-6.345224783737374
0.17589675679246922,1.7534668712277957,-6.363619339548753
0.17650750942022086,1.7534448698485863,-6.382056178468004
0.17711826204797246,1.7534235895490977,-6.400538759148598
0.1777290146757241,1.7534029227008538,-6.4190701207046
0.17833976730347573,1.7533827616868274,-6.43765287773004
0.17895051993122735,1.7533629992139075,-6.456289216591981
0.179561272558979,1.753343528620284,-6.4749808929992865
0.18017202518673062,1.7533242441769348,-6.493729230850981
0.18078277781448224,1.7533050413824813,-6.512535122358115
0.18139353044223389,1.7532858172506078,-6.531399029435794
0.1820042830699855,1.753266470589356,-6.550320986353202
0.18261503569773715,1.753246902271602,-6.569300603626596
0.18322578832548878,1.753227015496035,-6.588337073140364
0.1838365409532404,1.7532067160380198,-6.607429174471235
0.18444729358099204,1.7531859124897473,-6.626575282393405
0.18505804620874364,1.753164516489114,-6.645773375534358
0.18566879883649529,1.7531424429368074,-6.665021046150486
0.1862795514642469,1.7531196102011195,-6.684315510987159
0.18689030409199853,1.7530959403100448,-6.703653623184864
0.18750105671975018,1.7530713591302431,-6.723031885191623
0.1881118093475018,1.7530457965325532,-6.742446462634585
0.18872256197525342,1.7530191865436817,-6.761893199108189
0.18933331460300507,1.7529914674838392,-6.781367631826139
0.18994406723075669,1.7529625820900663,-6.800865008088003
0.19055481985850833,1.7529324776250697,-6.82038030250568
0.19116557248625995,1.7529011059714308,-6.839908234933286
0.19177632511401158,1.752868423711072,-6.859443289044379
0.19238707774176322,1.7528343921899348,-6.878979731496657
0.19299783036951482,1.7527989775678572,-6.898511631621412
0.19360858299726647,1.7527621508536662,-6.9180328815797765
0.19421933562501809,1.7527238879255718,-6.937537216919187
0.1948300882527697,1.752684169536962,-6.957018237467791
0.19544084088052135,1.752642981307771,-6.976469428500982
0.19605159350827298,1.752600313701579,-6.995884182117889
0.19666234613602462,1.7525561619887255,-7.015255818757373
0.19727309876377624,1.7525105261956515,-7.034577608794113
0.19788385139152787,1.7524634110408215,-7.053842794144201
0.1984946040192795,1.7524148258575334,-7.073044609819923
0.19910535664703113,1.7523647845040118,-7.0921763053645215
0.19971610927478275,1.7523133052611894,-7.111231166106929
0.20032686190253438,1.7522604107185933,-7.130202534172872
0.200937614530286,1.752206127648842,-7.149083829187906
0.20154836715803764,1.7521504868712001,-7.167868568615752
0.20215911978578927,1.7520935231047554,-7.186550387668827
0.20276987241354089,1.7520352748117267,-7.205123058737282
0.20338062504129253,1.7519757840314991,-7.223580510276452
0.20399137766904415,1.7519150962059455,-7.2419168451020095
0.2046021302967958,1.7518532599966552,-7.260126358039097
0.20521288292454742,1.7517903270946902,-7.278203552876783
0.20582363555229904,1.7517263520235036,-7.296143158577957
0.2064343881800507,1.7516613919356692,-7.313940144702653
0.2070451408078023,1.7515955064040738,-7.331589735999774
0.2076558934355539,1.751528757208259,-7.349087426128257
0.20826664606330555,1.7514612081165761,-7.366428990470506
