frequency,refractiveIndex,absorption
0.0006107526277516292,1.7567322131079415,-3.452290039899771e-05
0.0012215052555032584,1.7567596779883163,-0.00013842199375740843
0.0018322578832548875,1.756805402005837,-0.0003126875327156588
0.002443010511006517,1.7568693090692167,-0.000558966860223113
0.003053763138758146,1.7569512928174131,-0.0008795597971837043
0.003664515766509775,1.757051216786398,-0.0012774121947971863
0.004275268394261404,1.757168914623558,-0.001756107661342508
0.004886021022013034,1.7573041903498101,-0.002319857475947856
0.005496773649764663,1.7574568186692967,-0.0029734887048674472
0.006107526277516292,1.7576265453267896,-0.0037224305387630148
0.006718278905267922,1.7578130875126519,-0.00457269887257021
0.00732903153301955,1.7580161343154033,-0.005530879152702335
0.00793978416077118,1.7582353472217722,-0.00660410751971044
0.008550536788522809,1.7584703606641237,-0.007800050277765912
0.009161289416274438,1.7587207826152018,-0.009126881726024397
0.009772042044026067,1.7589861952298884,-0.010593260390430353
0.010382794671777697,1.759266155533881,-0.012208303698414002
0.010993547299529326,1.7595601961589173,-0.013981561142726641
0.011604299927280955,1.7598678261242116,-0.01592298598464545
0.012215052555032585,1.7601885316637105,-0.018042905551104774
0.012825805182784214,1.7605217770986483,-0.020351990184362883
0.013436557810535843,1.7608670057547735,-0.022861220907116314
0.014047310438287471,1.761223640923622,-0.025581855870729215
0.0146580630660391,1.7615910868669808,-0.028525395658265697
0.015268815693790731,1.7619687298636642,-0.031703547519113244
0.01587956832154236,1.7623559392975672,-0.03512818861604897
0.01649032094929399,1.762752068785809,-0.03881132837072007
0.017101073577045618,1.7631564573457128,-0.04276506999772787
0.01771182620479725,1.7635684305991455,-0.047001571322284955
0.018322578832548876,1.7639873020126595,-0.051533004980887955
0.018933331460300507,1.7644123741716653,-0.05637151810874195
0.019544084088052135,1.7648429400867713,-0.06152919162214703
0.020154836715803762,1.7652782845302037,-0.06701799920793855
0.020765589343555393,1.765717685400111,-0.07284976613615822
0.02137634197130702,1.7661604151103407,-0.0790361280156148
0.021987094599058652,1.766605742003146,-0.08558848961566441
0.02259784722681028,1.767052931782132,-0.09251798388008099
0.02320859985456191,1.767501248962511,-0.0998354312622497
0.023819352482313542,1.7679499583356804,-0.10755129951261148
0.02443010511006517,1.7683983264449177,-0.11567566405149027
0.025040857737816797,1.7688456230688232,-0.12421816906182333
0.025651610365568428,1.7692911227090897,-0.13318798943683924
0.026262362993320056,1.7697341060789402,-0.1425937937186222
0.026873115621071687,1.7701738615885598,-0.15244370816267427
0.027483868248823314,1.77060968682361,-0.16274528206332917
0.028094620876574942,1.771040890012987,-0.1735054544726563
0.028705373504326573,1.7714667914817068,-0.18473052244426988
0.0293161261320782,1.7718867250849473,-0.19642611092985213
0.029926878759829835,1.7723000396190594,-0.2085971444532769
0.030537631387581463,1.772706100205397,-0.22124782068286908
0.03114838401533309,1.7731042896428233,-0.23438158601743259
0.03175913664308472,1.7734940097247216,-0.24800111329647923
0.03236988927083635,1.7738746825164178,-0.26210828173846773
0.03298064189858798,1.7742457515888834,-0.2767041592045612
0.03359139452633961,1.7746066832047613,-0.2917889868774968
0.034202147154091235,1.774956967452831,-0.3073621664371586
0.03481289978184286,1.775296119327005,-0.3234222498065577
0.0354236524095945,1.775623679746379,-0.33996693153108726
0.036034405037346125,1.7759392165126635,-0.35699304384642017
0.03664515766509775,1.776242325201788,-0.3744965544785199
0.03725591029284938,1.7765326299865305,-0.39247256720951873
0.037866662920601014,1.7768097843872515,-0.4109153252329442
0.038477415548352635,1.777073471948067,-0.42981821730908565
0.03908816817610427,1.777323406836092,-0.4491737867222038
0.039698920803855904,1.7775593343615266,-0.4689737430279737
0.040309673431607525,1.7777810314168006,-0.48920897656899814
0.04092042605935916,1.7779883068331377,-0.5098695757248944
0.04153117868711079,1.7781810016533113,-0.5309448468517218
0.04214193131486242,1.7783589893195983,-0.5524233368541657
0.04275268394261404,1.7785221757763268,-0.5742928583237468
0.04336343657036568,1.77867049948668,-0.5965405171641281
0.043974189198117304,1.778803931363732,-0.6191527426160585
0.04458494182586893,1.7789224746161254,-0.6421153195830483
0.04519569445362056,1.7790261645089265,-0.6654134231501296
0.045806447081372194,1.7791150680407701,-0.6890316551791316
0.04641719970912382,1.7791892835384318,-0.7129540828554771
0.04702795233687545,1.7792489401705314,-0.737164279053692
0.047638704964627084,1.7792941973821939,-0.7616453643819519
0.048249457592378704,1.7793252442528316,-0.7863800507597393
0.04886021022013034,1.779342298779513,-0.8113506863770525
0.049470962847881966,1.779345607088586,-0.8365393018786731
0.050081715475633594,1.7793354425784835,-0.8619276576131709
0.05069246810338522,1.7793121049969087,-0.8874972917826709
0.051303220731136856,1.7792759194556653,-0.9132295693280237
0.05191397335888848,1.7792272353867744,-0.9391057313807083
0.05252472598664011,1.77916642544353,-0.9651069451131138
0.053135478614391746,1.779093884350324,-0.9912143538187467
0.05374623124214337,1.7790100277052792,-1.0174091270533623
0.054356983869895,1.7789152907397174,-1.0436725106708655
0.05496773649764663,1.7788101270386298,-1.06998587658857
0.05557848912539826,1.7786950072263874,-1.0963307721198745
0.056189241753149884,1.7785704176219657,-1.122688968715339
0.05679999438090152,1.7784368588679322,-1.1490425099570467
0.057410747008653146,1.778294844537521,-1.1753737586558257
0.05802149963640477,1.7781448997240776,-1.201665442905159
0.0586322522641564,1.77798755961709,-1.2279007009516505
0.059243004891908035,1.777823368069027,-1.254063124747429
0.05985375751965967,1.7776528761571135,-1.2801368020559034
0.06046451014741129,1.777476640744097,-1.3061063569884859
0.061075262775162925,1.7772952230419814,-1.3319569888572662
0.06168601540291455,1.7771091871825775,-1.357674509234813
0.06229676803066618,1.7769190987986287,-1.383245377119859
0.0629075206584178,1.7767255236191621,-1.4086567321146055
0.06351827328616944,1.7765290260825286,-1.433896425526841
0.06412902591392107,1.7763301679705288,-1.4589530493175538
0.0647397785416727,1.7761295070668186,-1.4838159628218617
0.06535053116942433,1.7759275958426906,-1.5084753171789527
0.06596128379717596,1.7757249801731212,-1.53292207741406
0.0665720364249276,1.7755221980858877,-1.5571480421225028
0.06718278905267921,1.7753197785463424,-1.5811458607134452
0.06779354168043085,1.7751182402803036,-1.6049090481789021
0.06840429430818247,1.774918090637341,-1.6284319973592623
0.06901504693593409,1.7747198244966587,-1.6517099886848148
0.06962579956368573,1.7745239232175138,-1.674739197379004
0.07023655219143736,1.774330853635981,-1.6975166981169303
0.070847304819189,1.774141067109831,-1.720040467137312
0.07145805744694061,1.7739549986130032,-1.7423093818149435
0.07206881007469225,1.7737730658810402,-1.7643232177055215
0.07267956270244387,1.7735956686088359,-1.7860826430810053
0.0732903153301955,1.7734231877016704,-1.807589210980999
0.07390106795794714,1.7732559845806435,-1.8288453488099992
0.07451182058569876,1.77309440054327,-1.8498543455168968
0.0751225732134504,1.7729387561799643,-1.870620336399739
0.07573332584120203,1.7727893508470536,-1.8911482855818371
0.07634407846895366,1.7726464621967424,-1.9114439662135543
0.07695483109670527,1.7725103457643945,-1.9315139384581612
0.0775655837244569,1.7723812346133887,-1.951365525323637
0.07817633635220854,1.7722593390376578,-1.9710067864113823
0.07878708897996017,1.772144846321917,-1.9904464896535745
0.07939784160771181,1.7720379205595116,-2.0096940811181514
0.08000859423546343,1.7719387025276598,-2.028759652964535
0.08061934686321505,1.7718473096197838,-2.047653909637722
0.08123009949096668,1.7717638358345478,-2.0663881323921895
0.08184085211871832,1.7716883518210467,-2.0849741422429964
0.08245160474646994,1.771620904979581,-2.1034242614429717
0.08306235737422157,1.7715615196172485,-2.1217512735925026
0.08367311000197321,1.7715101971575888,-2.13996838248816
0.08428386262972484,1.771466916403335,-2.158089169823288
0.08489461525747646,1.7714316338512621,-2.176127551855651
0.08550536788522808,1.7714042840580595,-2.1940977351605513
0.08611612051297972,1.7713847800559412,-2.2120141715911115
0.08672687314073135,1.7713730138167956,-2.2298915125701906
0.08733762576848299,1.7713688567633465,-2.2477445628408925
0.08794837839623461,1.771372160325957,-2.2655882338045874
0.08855913102398623,1.7713827565433864,-2.283437496577403
0.08916988365173786,1.7714004587058598,-2.3013073348988944
0.0897806362794895,1.7714250620386642,-2.3192126980255114
0.09039138890724112,1.7714563444243965,-2.337168453744955
0.09100214153499275,1.771494067161928,-2.3551893416466645
0.09161289416274439,1.771537975760003,-2.3732899267839964
0.09222364679049602,1.7715878007634074,-2.391484553864
0.09283439941824764,1.7716432586094235,-2.409787302099928
0.09344515204599926,1.771704052512375,-2.42821194085976
0.0940559046737509,1.771769873373842,-2.446771886243917
0.09466665730150253,1.7718404007161566,-2.465480158722692
0.09527740992925417,1.771915303636699,-2.484349341960926
0.09588816255700579,1.7719942417804304,-2.5033915429561557
0.09649891518475741,1.7720768663281137,-2.5226183536112154
0.09710966781250904,1.7721628209975135,-2.5420408138615174
0.09772042044026068,1.7722517430550049,-2.561669376468001
0.09833117306801231,1.7723432643347625,-2.5815138735889023
0.09894192569576393,1.7724370122629407,-2.6015834852305195
0.09955267832351557,1.7725326108839454,-2.621886709680179
0.10016343095126719,1.772629681886199,-2.642431336009892
0.10077418357901882,1.7727278456245268,-2.663224418740047
0.10138493620677044,1.7728267221365004,-2.684272254741714
0.10199568883452208,1.7729259321500037,-2.705580362449362
0.10260644146227371,1.7730250980792612,-2.727153463451068
0.10321719409002535,1.773123845006805,-2.7489954665115004
0.10382794671777695,1.7732218016486248,-2.7711094540777945
0.10443869934552859,1.7733186013000544,-2.7934976713102206
0.10504945197328022,1.7734138827598496,-2.816161517668854
0.10566020460103186,1.7735072912300616,-2.83910154108091
0.10627095722878349,1.773598479189348,-2.8623174347049116
0.10688170985653511,1.7736871072375047,-2.885808036295807
0.10749246248428675,1.773772844909055,-2.9095713301713553
0.10810321511203837,1.7738553714538545,-2.9336044517659405
0.10871396773979,1.7739343765827809,-2.9579036947540467
0.10932472036754162,1.7740095611767164,-2.982464520711615
0.10993547299529326,1.7740806379571297,-3.0072815712796945
0.11054622562304489,1.774147332116692,-3.0323486827848902
0.11115697825079653,1.7742093819085527,-3.0576589032588983
0.11176773087854816,1.7742665391929786,-3.083204511798085
0.11237848350629977,1.7743185699402233,-3.1089770401910037
0.1129892361340514,1.7743652546886768,-3.1349672967370736
0.11359998876180304,1.7744063889574566,-3.1611653921696874
0.11421074138955467,1.7744417836127615,-3.1875607675948774
0.11482149401730629,1.774471265187483,-3.2141422243453377
0.11543224664505793,1.7744946761537117,-3.2408979556462616
0.11604299927280955,1.774511875147912,-3.2678155799849686
0.11665375190056118,1.7745227371487322,-3.2948821760677474
0.1172645045283128,1.7745271536075227,-3.3220843192469762
0.11787525715606444,1.7745250325318258,-3.349408119294346
0.11848600978381607,1.7745162985222245,-3.376839259393803
0.1190967624115677,1.7745008927630492,-3.4043630362266217
0.11970751503931934,1.7744787729676679,-3.431964401013433
0.12031826766707095,1.7744499132791147,-3.459628001382343
0.12092902029482258,1.7744143041270086,-3.48733822392727
0.12153977292257422,1.7743719520418104,-3.515079237318998
0.12215052555032585,1.774322879427582,-3.5428350358350333
0.12276127817807747,1.7742671242945425,-3.570589483169
0.1233720308058291,1.774204739952763,-3.5983263563869063
0.12398278343358073,1.7741357946685192,-3.626029389893519
0.12459353606133236,1.774060371284841,-3.6536823192762906
0.125204288689084,1.773978566807896,-3.6812689248972026
0.1258150413168356,1.7738904919609528,-3.7087730751011394
0.12642579394458725,1.77379627070766,-3.7361787689185157
0.12703654657233887,1.7736960397465398,-3.7634701781353743
0.12764729920009052,1.7735899479785278,-3.790631688616126
0.12825805182784214,1.7734781559495307,-3.8176479407598287
0.12886880445559376,1.7733608352699506,-3.8445038689815423
0.1294795570833454,1.7732381680131637,-3.8711847401109267
0.13009030971109703,1.7731103460950115,-3.897676190604914
0.13070106233884865,1.7729775706362496,-3.923964262480686
0.13131181496660027,1.772840051310082,-3.950035437872125
0.13192256759435192,1.772698005676748,-3.9758766721269754
0.13253332022210354,1.7725516585072179,-4.001475425360911
0.1331440728498552,1.772401241098015,-4.026819692392893
0.13375482547760678,1.7722469905791431,-4.051898030992694
0.13436557810535843,1.7720891492171242,-4.076699588374013
0.13497633073311005,1.7719279637150631,-4.101214125875599
0.1355870833608617,1.7717636845116769,-4.125432041777355
0.13619783598861332,1.771596565081149,-4.149344392203297
0.13680858861636494,1.7714268612356512,-4.172942910070226
0.13741934124411656,1.7712548304323485,-4.19622002204687
0.13803009387186818,1.7710807310865648,-4.219168863493701
0.13864084649961983,1.7709048218928904,-4.241783291357943
0.13925159912737145,1.7707273611557701,-4.264057895008232
0.1398623517551231,1.770548606131258,-4.285988004992119
0.14047310438287472,1.7703688123813763,-4.307569699713271
0.14108385701062634,1.770188233142564,-4.3287998100246945
0.141694609638378,1.7700071187096391,-4.349675921741212
0.1423053622661296,1.7698257158365913,-4.370196376082014
0.14291611489388123,1.7696442671554498,-4.3903602680556855
0.14352686752163288,1.7694630106144722,-4.410167442808569
0.1441376201493845,1.769282178936762,-4.429618489960325
0.14474837277713615,1.7691019991003776,-4.448714735955736
0.14535912540488774,1.7689226918409553,-4.467458234466771
0.14596987803263936,1.768744471177741,-4.485851754884619
0.146580630660391,1.7685675439639112,-4.503898768943191
0.14719138328814263,1.7683921094619677,-4.521603435523655
0.14780213591589428,1.7682183589449074,-4.538970583690118
0.1484128885436459,1.7680464753238392,-4.556005694013415
0.14902364117139752,1.767876632802587,-4.572714878243074
0.14963439379914917,1.7677089965598285,-4.589104857390403
0.1502451464269008,1.767543722459166,-4.605182938290814
0.15085589905465244,1.7673809567874992,-4.620956988716906
0.15146665168240406,1.7672208360220307,-4.6364354111139825
0.15207740431015568,1.7670634866260655,-4.651627115040225
0.15268815693790733,1.766909024873815,-4.666541488386378
0.15329890956565892,1.7667575567042593,-4.681188367463689
0.15390966219341054,1.7666091776040893,-4.695578006041756
0.1545204148211622,1.7664639725196898,-4.70972104342808
0.1551311674489138,1.766322015798026,-4.723628471677442
0.15574192007666546,1.7661833711562573,-4.737311602026495
0.15635267270441708,1.7660480916798322,-4.750782030645308
0.1569634253321687,1.7659162198487222,-4.764051603805727
0.15757417795992035,1.7657877875914492,-4.777132382559503
0.15818493058767197,1.7656628163664203,-4.79003660703104
0.15879568321542362,1.7655413172700933,-4.802776660419086
0.15940643584317524,1.7654232911713876,-4.815365032811024
0.16001718847092686,1.7653087288717195,-4.8278142849093575
0.1606279410986785,1.7651976112899632,-4.8401370117727245
0.1612386937264301,1.7650899096716008,-4.852345806671419
0.16184944635418172,1.7649855858212788,-4.864453225157596
0.16246019898193337,1.7648845923578687,-4.876471749452608
0.163070951609685,1.764786872991202,-4.888413753247314
0.16368170423743664,1.7646923628194475,-4.900291467016519
0.16429245686518826,1.764600988646196,-4.912116943941804
0.16490320949293988,1.7645126693161828,-4.923902026537814
0.16551396212069153,1.764427316068543,-4.935658314077062
0.16612471474844315,1.7643448329065214,-4.947397130900034
0.1667354673761948,1.7642651169824377,-4.95912949570152
0.16734622000394642,1.7641880589967354,-4.970866091876291
0.16795697263169804,1.7641135436098758,-4.982617239007973
0.16856772525944969,1.7640414498658459,-4.994392865577845
0.16917847788720128,1.7639716516259918,-5.006202482969827
0.16978923051495293,1.7639040180118861,-5.018055160842363
0.17039998314270455,1.763838413855935,-5.02995950393432
0.17101073577045617,1.7637747001583877,-5.041923630366865
0.17162148839820782,1.7637127345494183,-5.053955151502258
0.17223224102595944,1.7636523717549577,-5.066061153409381
0.17284299365371106,1.763593464064925,-5.078248179987296
0.1734537462814627,1.7635358618025314,-5.090522217790001
0.17406449890921433,1.7634794137933243,-5.10288868259038
0.17467525153696598,1.7634239678326633,-5.115352407716515
0.1752860041647176,1.763369371150312,-5.127917634187819
0.17589675679246922,1.7633154708708731,-5.1405880026746855
0.17650750942022086,1.7632621144687866,-5.153366547296133
0.17711826204797246,1.7632091502166838,-5.1662556912673105
0.1777290146757241,1.763156427625841,-5.179257244403245
0.17833976730347573,1.763103797877611,-5.192372402475423
0.17895051993122735,1.763051114244644,-5.205601748419067
0.179561272558979,1.7629982325008318,-5.218945255375206
0.18017202518673062,1.7629450113188891,-5.232402291553595
0.18078277781448224,1.7628913126545853,-5.245971626891049
0.18139353044223389,1.762837002116642,-5.259651441478138
0.1820042830699855,1.7627819493213766,-5.273439335720791
0.18261503569773715,1.7627260282312613,-5.28733234219589
0.18322578832548878,1.7626691174765583,-5.301326939159239
0.1838365409532404,1.7626111006592986,-5.31541906565571
0.18444729358099204,1.7625518666389104,-5.329604138177638
0.18505804620874364,1.7624913097988784,-5.34387706881366
0.18566879883649529,1.7624293302938545,-5.358232284826156
0.1862795514642469,1.762365834276718,-5.372663749589383
0.18689030409199853,1.7623007341051666,-5.387164984817915
0.18750105671975018,1.7622339485274348,-5.401729094012989
0.1881118093475018,1.7621654028468514,-5.416348787046477
0.18872256197525342,1.7620950290649977,-5.4310164058042965
0.18933331460300507,1.7620227660032701,-5.44572395080404
0.18994406723075669,1.7619485594027517,-5.460463108702803
0.19055481985850833,1.7618723620023446,-5.475225280604144
0.19116557248625995,1.7617941335951772,-5.490001611077969
0.19177632511401158,1.7617138410633721,-5.504783017796668
0.19238707774176322,1.7616314583913155,-5.519560221698825
0.19299783036951482,1.761546966657644,-5.534323777582907
0.19360858299726647,1.7614603540062013,-5.549064105037453
0.19421933562501809,1.7613716155962917,-5.5637715196134625
0.1948300882527697,1.7612807535326356,-5.578436264138318
0.19544084088052135,1.7611877767754212,-5.593048540082771
0.19605159350827298,1.7610927010309758,-5.607598538880186
0.19666234613602462,1.760995548623586,-5.622076473105434
0.19727309876377624,1.760896348349051,-5.6364726074210365
0.19788385139152787,1.7607951353106073,-5.65077728919601
0.1984946040192795,1.7606919507378953,-5.664980978709698
0.19910535664703113,1.7605868417897088,-5.679074278847621
0.19971610927478275,1.7604798613412609,-5.693047964206114
0.20032686190253438,1.7603710677567623,-5.7068930095193355
0.200937614530286,1.7602605246481666,-5.7206006173258315
0.20154836715803764,1.7601483006208931,-5.734162244796991
0.20215911978578927,1.7600344690074559,-5.7475696296490435
0.20276987241354089,1.7599191075898808,-5.760814815065787
0.20338062504129253,1.7598022983118584,-5.773890173562441
0.20399137766904415,1.759684126981564,-5.78678842972327
0.2046021302967958,1.759564682966121,-5.7995026817501065
0.20521288292454742,1.7594440588786981,-5.812026421763134
0.20582363555229904,1.7593223502592117,-5.824353554797504
0.2064343881800507,1.7591996552496292,-5.8364784164467265
0.2070451408078023,1.7590760742648937,-5.848395789103497
0.2076558934355539,1.7589517096604543,-5.860100916757422
0.20826664606330555,1.758826665397417,-5.871589518310311
