frequency,refractiveIndex,absorption
0.0006107526277516292,1.7296039805303456,-2.9888436105775884e-05
0.0012215052555032584,1.7296275219376394,-0.00011986244338314002
0.0018322578832548875,1.7296667097742928,-0.00027084719108786895
0.002443010511006517,1.7297214723649654,-0.0004843815375701947
0.003053763138758146,1.7297917095399513,-0.0007626134005847607
0.003664515766509775,1.7298772928108797,-0.0011082932875603436
0.004275268394261404,1.729978065596503,-0.00152476599776844
0.004886021022013034,1.7300938434984472,-0.0020159605117189153
0.005496773649764663,1.7302244146268344,-0.0025863780866670284
0.006107526277516292,1.7303695399756494,-0.0032410785806882307
0.006718278905267922,1.7305289538475648,-0.003985665031385559
0.00732903153301955,1.7307023643281694,-0.004826266518976776
0.00793978416077118,1.7308894538091408,-0.005769519347371768
0.008550536788522809,1.7310898795602243,-0.006822546580559084
0.009161289416274438,1.7313032743495391,-0.007992935975705273
0.009772042044026067,1.7315292471118247,-0.009288716358330678
0.010382794671777697,1.7317673836641574,-0.010718332488969223
0.010993547299529326,1.732017247468536,-0.012290618474998183
0.011604299927280955,1.7322783804407087,-0.014014769785520952
0.012215052555032585,1.7325503038045358,-0.015900313931559516
0.012825805182784214,1.7328325189910458,-0.017957079878026694
0.013436557810535843,1.7331245085812588,-0.020195166258646154
0.014047310438287471,1.7334257372917978,-0.022624908469177245
0.0146580630660391,1.7337356530020727,-0.025256844718881996
0.015268815693790731,1.7340536878218609,-0.028101681124669094
0.01587956832154236,1.7343792591978682,-0.031170255936642046
0.01649032094929399,1.7347117710577495,-0.03447350298832737
0.017101073577045618,1.7350506149899283,-0.038022414469081535
0.01771182620479725,1.7353951714574782,-0.04182800312029324
0.018322578832548876,1.7357448110440876,-0.045901263961260076
0.018933331460300507,1.736098895730045,-0.05025313565436792
0.019544084088052135,1.7364567801959838,-0.05489446162297774
0.020154836715803762,1.7368178131520733,-0.05983595103885148
0.020765589343555393,1.7371813386900254,-0.06508813979926066
0.02137634197130702,1.7375466976553229,-0.0706613516166803
0.021987094599058652,1.737913229036786,-0.07656565934675848
0.02259784722681028,1.738280271370499,-0.08281084668210811
0.02320859985456191,1.7386471641549774,-0.08940637034176083
0.023819352482313542,1.7390132492743522,-0.09636132288694299
0.02443010511006517,1.7393778724261093,-0.10368439629501319
0.025040857737816797,1.739740384549965,-0.11138384642377969
0.025651610365568428,1.7401001432541534,-0.11946745849810286
0.026262362993320056,1.7404565142355173,-0.1279425137499071
0.026873115621071687,1.7408088726894817,-0.1368157573416334
0.027483868248823314,1.741156604706095,-0.14609336770112544
0.028094620876574942,1.7414991086481573,-0.15578092739308624
0.028705373504326573,1.7418357965074296,-0.16588339564948654
0.0293161261320782,1.742166095234946,-0.17640508267722782
0.029926878759829835,1.7424894480413213,-0.18734962585688483
0.030537631387581463,1.7428053156630943,-0.1987199679410186
0.03114838401533309,1.7431131775910302,-0.21051833735514022
0.03175913664308472,1.7434125332565042,-0.2227462306976198
0.03236988927083635,1.7437029031719955,-0.23540439752792872
0.03298064189858798,1.7439838300219361,-0.2484928275249288
0.03359139452633961,1.7442548797001896,-0.26201074008882425
0.034202147154091235,1.744515642290594,-0.27595657645142824
0.03481289978184286,1.7447657329871342,-0.29032799435054185
0.0354236524095945,1.7450047929505128,-0.3051218653139183
0.036034405037346125,1.745232490098012,-0.32033427458929575
0.03664515766509775,1.7454485198237883,-0.335960523745373
0.03725591029284938,1.7456526056470012,-0.3519951359585777
0.037866662920601014,1.7458444997853095,-0.36843186398986166
0.038477415548352635,1.7460239836516034,-0.3852637008435362
0.03908816817610427,1.7461908682721403,-0.4024828930905693
0.039698920803855904,1.7463449946244347,-0.4200809568257959
0.040309673431607525,1.7464862338936005,-0.4380486962191215
0.04092042605935916,1.7466144876461696,-0.45637622460788263
0.04153117868711079,1.7467296879206684,-0.4750529880687913
0.04214193131486242,1.7468317972345717,-0.49406779139481044
0.04275268394261404,1.7469208085075898,-0.513408826394213
0.04336343657036568,1.7469967449014756,-0.5330637024179062
0.043974189198117304,1.7470596595770251,-0.5530194790112642
0.04458494182586893,1.7471096353690576,-0.573262700579286
0.04519569445362056,1.7471467843806179,-0.5937794329434871
0.045806447081372194,1.747171247497905,-0.614555301662483
0.04641719970912382,1.7471831938276667,-0.6355755319801816
0.04702795233687545,1.7471828200592139,-0.6568249902593988
0.047638704964627084,1.7471703497533242,-0.6782882267524396
0.048249457592378704,1.7471460325607144,-0.6999495195552202
0.04886021022013034,1.7471101433728817,-0.7217929195875719
0.049470962847881966,1.7470629814084118,-0.7438022964378036
0.050081715475633594,1.747004869238064,-0.7659613849078023
0.05069246810338522,1.7469361517521067,-0.7882538320918879
0.051303220731136856,1.7468571950735414,-0.8106632448226578
0.05191397335888848,1.746768385421062,-0.8331732373151012
0.05252472598664011,1.7466701279257095,-0.8557674788414547
0.053135478614391746,1.7465628454052085,-0.8784297412704671
0.05374623124214337,1.7464469771002538,-0.9011439463051603
0.054356983869895,1.7463229773768958,-0.9238942122571904
0.05496773649764663,1.7461913143993326,-0.9466649001976987
0.05557848912539826,1.7460524687774523,-0.969440659328785
0.056189241753149884,1.7459069321934348,-0.9922064714237676
0.05679999438090152,1.7457552060117243,-1.0149476941893916
0.057410747008653146,1.7455977998767522,-1.0376501034080392
0.05802149963640477,1.7454352303026157,-1.0602999337236587
0.0586322522641564,1.7452680192589378,-1.0828839179422698
0.059243004891908035,1.7450966927570977,-1.1053893247223534
0.05985375751965967,1.7449217794408374,-1.1278039945396745
0.06046451014741129,1.7447438091852705,-1.1501163738162785
0.061075262775162925,1.7445633117081043,-1.1723155471112259
0.06168601540291455,1.744380815196848,-1.1943912672785468
0.06229676803066618,1.7441968449556093,-1.216333983505586
0.0629075206584178,1.7440119220749404,-1.2381348671514196
0.06351827328616944,1.7438265621281226,-1.2597858353146323
0.06412902591392107,1.743641273897,-1.281279572066433
0.0647397785416727,1.7434565581304464,-1.3026095472933785
0.06535053116942433,1.7432729063383285,-1.3237700331018567
0.06596128379717596,1.7430907996236522,-1.3447561177443952
0.0665720364249276,1.7429107075554755,-1.3655637170357575
0.06718278905267921,1.7427330870849604,-1.3861895832336029
0.06779354168043085,1.7425583815067527,-1.4066313113683206
0.06840429430818247,1.7423870194677806,-1.4268873430113769
0.06901504693593409,1.742219414025381,-1.4469569674807152
0.06962579956368573,1.7420559617563862,-1.4668403204893419
0.07023655219143736,1.7418970419188484,-1.4865383802483403
0.070847304819189,1.741743015667751,-1.5060529610446254
0.07145805744694061,1.7415942253259389,-1.525386704320251
0.07206881007469225,1.74145099371142,-1.5445430672842466
0.07267956270244387,1.7413136235219153,-1.563526309099692
0.0732903153301955,1.7411823967775266,-1.5823414746883544
0.07390106795794714,1.741057574322103,-1.6009943762077683
0.07451182058569876,1.7409393953838321,-1.619491572257688
0.0751225732134504,1.7408280771954814,-1.6378403448789076
0.07573332584120203,1.740723814674432,-1.6560486744160532
0.07634407846895366,1.7406267801626603,-1.6741252123176456
0.07695483109670527,1.7405371232266265,-1.6920792519547108
0.0775655837244569,1.7404549705168968,-1.7099206975428738
0.07817633635220854,1.7403804256872264,-1.7276600312594417
0.07878708897996017,1.7403135693726712,-1.7453082786495684
0.07939784160771181,1.740254459226254,-1.7628769724216151
0.08000859423546343,1.7402031300134368,-1.7803781147371693
0.08061934686321505,1.7401595937637615,-1.7978241381017215
0.08123009949096668,1.7401238399786625,-1.8152278649706515
0.08184085211871832,1.7400958358945207,-1.8326024661854057
0.08245160474646994,1.7400755267998638,-1.849961418359089
0.08306235737422157,1.740062836405446,-1.867318460335382
0.08367311000197321,1.7400576672659338,-1.8846875488455728
0.08428386262972484,1.7400599012517572,-1.9020828134924028
0.08489461525747646,1.7400694000695842,-1.9195185111916087
0.08550536788522808,1.7400860058298153,-1.9370089802042145
0.08611612051297972,1.740109541659328,-1.9545685938938553
0.08672687314073135,1.7401398123576814,-1.972211714345862
0.08733762576848299,1.7401766050948333,-1.9899526459845012
0.08794837839623461,1.7402196901483444,-2.007805589328037
0.08855913102398623,1.7402688216780193,-2.0257845950171136
0.08916988365173786,1.7403237385357286,-2.0439035182576837
0.0897806362794895,1.7403841651081706,-2.0621759738145458
0.09039138890724112,1.7404498121902328,-2.0806152916926304
0.09100214153499275,1.740520377886509,-2.099234473642744
0.09161289416274439,1.7405955485384985,-2.11804615062325
0.09222364679049602,1.740674999674894,-2.1370625413535556
0.09283439941824764,1.740758396982408,-2.1562954120831774
0.09344515204599926,1.740845397294406,-2.175756037707236
0.0940559046737509,1.7409356495946533,-2.195455164347986
0.09466665730150253,1.7410287960334394,-2.215402973522047
0.09527740992925417,1.741124472953284,-2.235609048006652
0.09588816255700579,1.7412223119213817,-2.2560823395148586
0.09649891518475741,1.74132194076603,-2.2768311382823856
0.09710966781250904,1.7414229846140934,-2.297863044666261
0.09772042044026068,1.7415250669267772,-2.319184942844561
0.09833117306801231,1.7416278105307963,-2.3408029767045515
0.09894192569576393,1.741730838642159,-2.3627225279968442
0.09955267832351557,1.7418337758797544,-2.384948196827307
0.10016343095126719,1.7419362492660126,-2.407483784549251
0.10077418357901882,1.7420378892118857,-2.430332279113218
0.10138493620677044,1.7421383304835094,-2.4534958429204767
0.10199568883452208,1.7422372131479507,-2.4769758032196916
0.10260644146227371,1.7423341834954598,-2.500772645078429
0.10321719409002535,1.7424288949358615,-2.5248860069495027
0.10382794671777695,1.7425210088666123,-2.549314678846394
0.10443869934552859,1.7426101955103452,-2.5740566031312677
0.10504945197328022,1.7426961347196839,-2.5991088779108744
0.10566020460103186,1.742778516747294,-2.624467763024812
0.10627095722878349,1.742857042979219,-2.650128688605961
0.10688170985653511,1.7429314266297082,-2.6760862661774816
0.10749246248428675,1.743001393395861,-2.7023343022484547
0.10810321511203837,1.7430666820705225,-2.7288658143582714
0.10871396773979,1.7431270451120786,-2.7556730495097237
0.10932472036754162,1.7431822491698479,-2.7827475049284955
0.10993547299529326,1.7432320755640267,-2.810079951071751
0.11054622562304489,1.7432763207192137,-2.8376604568065424
0.11115697825079653,1.743314796550741,-2.865478416667538
0.11176773087854816,1.7433473308031757,-2.8935225801007474
0.11237848350629977,1.743373767340548,-2.9217810825888995
0.1129892361340514,1.7433939663879856,-2.950241478551563
0.11359998876180304,1.7434078047246109,-2.97889077590611
0.11421074138955467,1.7434151758277237,-3.007715472171529
0.11482149401730629,1.7434159899684392,-3.0367015919907026
0.11543224664505793,1.7434101742590973,-3.0658347259450425
0.11604299927280955,1.7433976726529437,-3.095100070529876
0.11665375190056118,1.743378445896684,-3.124482469157794
0.1172645045283128,1.7433524714366988,-3.153966454052904
0.11787525715606444,1.7433197432798122,-3.183536288898734
0.11848600978381607,1.7432802718096696,-3.2131760121004462
0.1190967624115677,1.7432340835598739,-3.2428694805208407
0.11970751503931934,1.7431812209451643,-3.272600413550823
0.12031826766707095,1.7431217419520764,-3.3023524373728286
0.12092902029482258,1.7430557197905145,-3.3321091292801164
0.12153977292257422,1.7429832425079146,-3.3618540619127235
0.12215052555032585,1.742904412567637,-3.391570847273798
0.12276127817807747,1.742819346393394,-3.4212431803942107
0.1233720308058291,1.7427281738815597,-3.4508548825115786
0.12398278343358073,1.742631037883241,-3.480389943639986
0.12459353606133236,1.7425280936581429,-3.509832564401481
0.125204288689084,1.7424195083022127,-3.5391671970012104
0.1258150413168356,1.7423054601511139,-3.5683785852307905
0.12642579394458725,1.7421861381616894,-3.597451803384605
0.12703654657233887,1.7420617412734356,-3.626372293987597
0.12764729920009052,1.741932477752248,-3.6551259042262725
0.12825805182784214,1.741798564518482,-3.6836989209921454
0.12886880445559376,1.7416602264615437,-3.712078104442999
0.1294795570833454,1.7415176957431402,-3.740250719998204
0.13009030971109703,1.7413712110913147,-3.7682045686886037
0.13070106233884865,1.7412210170874067,-3.795928015786976
0.13131181496660027,1.7410673634480103,-3.82341001765246
0.13192256759435192,1.7409105043040138,-3.850640146726907
0.13253332022210354,1.7407506974787386,-3.877608614628772
0.1331440728498552,1.740588203767166,-3.9043062932956887
0.13375482547760678,1.740423286218205,-3.930724734133071
0.13436557810535843,1.7402562094218925,-3.9568561851318327
0.13497633073311005,1.7400872388033615,-3.982693605927079
0.1355870833608617,1.7399166399253756,-4.008230680770802
0.13619783598861332,1.7397446778011405,-4.0334618294041045
0.13680858861636494,1.7395716162190598,-4.058382215814282
0.13741934124411656,1.7393977170810513,-4.082987754872559
0.13803009387186818,1.7392232397559055,-4.107275116851729
0.13864084649961983,1.7390484404491942,-4.131241729830138
0.13925159912737145,1.7388735715910788,-4.154885779992725
0.1398623517551231,1.7386988812433668,-4.178206209844668
0.14047310438287472,1.738524612527015,-4.201202714364032
0.14108385701062634,1.738351003071274,-4.223875735114723
0.141694609638378,1.7381782844855513,-4.246226452357867
0.1423053622661296,1.7380066818550017,-4.268256775195527
0.14291611489388123,1.7378364132607755,-4.289969329789788
0.14352686752163288,1.7376676893257983,-4.311367445704582
0.1441376201493845,1.7375007127868303,-4.33245514042086
0.14474837277713615,1.737335678093538,-4.353237102081197
0.14535912540488774,1.737172771035187,-4.373718670521768
0.14596987803263936,1.7370121683954995,-4.393905816657907
0.146580630660391,1.7368540376361556,-4.413805120288121
0.14719138328814263,1.7366985366093344,-4.433423746389053
0.14780213591589428,1.736545813299596,-4.452769419974884
0.1484128885436459,1.7363960055953807,-4.471850399598577
0.14902364117139752,1.7362492410902703,-4.490675449575876
0.14963439379914917,1.7361056369141081,-4.509253811015679
0.1502451464269008,1.7359652995940182,-4.5275951717420995
0.15085589905465244,1.7358283249452595,-4.545709635197212
0.15146665168240406,1.7356947979918271,-4.563607688413456
0.15207740431015568,1.7355647929165565,-4.5813001691521205
0.15268815693790733,1.735438373040541,-4.598798232298101
0.15329890956565892,1.735315590831492,-4.616113315608696
0.15390966219341054,1.7351964879406752,-4.633257104915134
0.1545204148211622,1.7350810952679587,-4.650241498873002
0.1551311674489138,1.7349694330544614,-4.6670785733619935
0.15574192007666546,1.7348615110022274,-4.683780545635395
0.15635267270441708,1.7347573284202724,-4.700359738318208
0.1569634253321687,1.7346568743963133,-4.716828543357174
0.15757417795992035,1.7345601279934428,-4.73319938601867
0.15818493058767197,1.734467058470899,-4.749484689040065
0.15879568321542362,1.7343776255281231,-4.765696837028268
0.15940643584317524,1.7342917795711352,-4.781848141209028
0.16001718847092686,1.7342094620003146,-4.797950804620931
0.1606279410986785,1.7341306055185604,-4.814016887850866
0.1612386937264301,1.7340551344587665,-4.8300582754066275
0.16184944635418172,1.7339829651295526,-4.8460866428169025
0.16246019898193337,1.7339140061780947,-4.862113424550046
0.163070951609685,1.7338481589689052,-4.878149782839343
0.16368170423743664,1.7337853179773635,-4.894206577498062
0.16429245686518826,1.7337253711967602,-4.910294336809218
0.16490320949293988,1.7336682005576323,-4.926423229565057
0.16551396212069153,1.7336136823580786,-4.942603038334321
0.16612471474844315,1.7335616877037836,-4.958843134027994
0.1667354673761948,1.7335120829564428,-4.975152451830549
0.16734622000394642,1.733464730189249,-4.9915394685603625
0.16795697263169804,1.7334194876481321,-5.008012181519724
0.16856772525944969,1.7333762102173995,-5.0245780888866065
0.16917847788720128,1.7333347498884477,-5.041244171700465
0.16978923051495293,1.7332949562301976,-5.0580168774867555
0.17039998314270455,1.733256676859972,-5.074902105557392
0.17101073577045617,1.733219757913416,-5.091905194027261
0.17162148839820782,1.7331840445122464,-5.109030908571639
0.17223224102595944,1.733149381228465,-5.126283432950958
0.17284299365371106,1.7331156125438276,-5.143666361322933
0.1734537462814627,1.7330825833032963,-5.1611826923529645
0.17406449890921433,1.7330501391612687,-5.178834825132854
0.17467525153696598,1.733018127019408,-5.196624556909744
0.1752860041647176,1.7329863954549327,-5.21455308262036
0.17589675679246922,1.732954795138232,-5.232620996226766
0.17650750942022086,1.732923179238785,-5.250828293832334
0.17711826204797246,1.7328914038183125,-5.269174378566282
0.1777290146757241,1.7328593282102258,-5.287658067205678
0.17833976730347573,1.7328268153844324,-5.306277598507896
0.17895051993122735,1.7327937322966136,-5.325030643218945
0.179561272558979,1.7327599502211826,-5.343914315715023
0.18017202518673062,1.7327253450671338,-5.362925187234329
0.18078277781448224,1.7326897976761013,-5.382059300649477
0.18139353044223389,1.732653194101978,-5.401312186723939
0.1820042830699855,1.7326154258714812,-5.4206788817990255
0.18261503569773715,1.7325763902252147,-5.4401539468428455
0.18322578832548878,1.732535990338689,-5.459731487799846
0.1838365409532404,1.7324941355229782,-5.479405177169007
0.18444729358099204,1.732450741404627,-5.499168276737177
0.18505804620874364,1.7324057300845954,-5.519013661392049
0.18566879883649529,1.7323590302760075,-5.538933843934638
0.1862795514642469,1.7323105774205954,-5.558921000810866
0.18689030409199853,1.7322603137837493,-5.578966998676598
0.18750105671975018,1.7322081885281841,-5.5990634217122155
0.1881118093475018,1.732154157766285,-5.619201599595531
0.18872256197525342,1.732098184591226,-5.639372636048921
0.18933331460300507,1.7320402390870866,-5.65956743786443
0.18994406723075669,1.7319802983181591,-5.679776744322178
0.19055481985850833,1.7319183462977823,-5.699991156904437
0.19116557248625995,1.7318543739370433,-5.720201169218235
0.19177632511401158,1.7317883789737498,-5.740397197031283
0.19238707774176322,1.7317203658821472,-5.7605696083324585
0.19299783036951482,1.7316503457638972,-5.780708753322064
0.19360858299726647,1.7315783362208472,-5.8008049942477715
0.19421933562501809,1.7315043612102339,-5.820848734991061
0.1948300882527697,1.7314284508829498,-5.840830450320919
0.19544084088052135,1.7313506414055655,-5.860740714726681
0.19605159350827298,1.7312709747668331,-5.880570230747344
0.19666234613602462,1.7311894985694418,-5.900309856714447
0.19727309876377624,1.7311062658078111,-5.919950633830053
0.19788385139152787,1.7310213346327497,-5.939483812502045
0.1984946040192795,1.7309347681038367,-5.958900877862927
0.19910535664703113,1.7308466339303996,-5.978193574399998
0.19971610927478275,1.730757004201974,-5.997353929631621
0.20032686190253438,1.730665955109187,-6.0163742767601
0.200937614530286,1.7305735666559758,-6.035247276244115
0.20154836715803764,1.7304799223640779,-6.053965936231509
0.20215911978578927,1.7303851089707774,-6.072523631796966
0.20276987241354089,1.7302892161208436,-6.090914122936495
0.20338062504129253,1.730192336053634,-6.109131571272135
0.20399137766904415,1.7300945632863305,-6.127170555423805
0.2046021302967958,1.7299959942942738,-6.1450260850116045
0.20521288292454742,1.7298967271893644,-6.162693613253617
0.20582363555229904,1.7297968613974761,-6.1801690481318285
0.2064343881800507,1.7296964973358342,-6.19744876209917
0.2070451408078023,1.7295957360913006,-6.214529600307439
0.2076558934355539,1.7294946791004853,-6.231408887340942
