frequency,refractiveIndex,absorption
0.0006107526277516292,1.8490781101093483,0.0008483590793993945
0.0012215052555032584,1.8489569380698103,0.003392195543407965
0.0018322578832548875,1.848755176273637,0.007627791200748838
0.002443010511006517,1.8484731114664128,0.013548962810305664
0.003053763138758146,1.848111143778156,0.021147082604447198
0.003664515766509775,1.8476697854192878,0.030411106836376857
0.004275268394261404,1.8471496590178578,0.041327612168593875
0.004886021022013034,1.8465514956081408,0.05388083967075947
0.005496773649764663,1.8458761322828925,0.06805274614889857
0.006107526277516292,1.845124509523325,0.08382306248449758
0.006718278905267922,1.8442976682225956,0.10116935862202864
0.00732903153301955,1.843396746420419,0.12006711480720784
0.00793978416077118,1.8424229757675532,0.14048979864596894
0.008550536788522809,1.8413776777403006,0.1624089475264188
0.009161289416274438,1.8402622596262788,0.18579425592232474
0.009772042044026067,1.839078210303262,0.21061366707798587
0.010382794671777697,1.8378270958339515,0.23683346856014345
0.010993547299529326,1.836510554899587,0.2644183911528696
0.011604299927280955,1.8351302940958174,0.29333171056635693
0.012215052555032585,1.833688083114196,0.32353535143006124
0.012825805182784214,1.8321857498325955,0.3549899930441265
0.013436557810535843,1.8306251753374123,0.38765517637069435
0.014047310438287471,1.8290082889002446,0.42148941175836024
0.0146580630660391,1.8273370629307988,0.4564502869076648
0.015268815693790731,1.825613507927318,0.49249457460372364
0.01587956832154236,1.823839667444813,0.5295783397629661
0.01649032094929399,1.822017613100496,0.5676570453642256
0.017101073577045618,1.820149439634787,0.6066856568599036
0.01771182620479725,1.8182372600450727,0.6466187446899558
0.018322578832548876,1.8162832008083478,0.6874105845500783
0.018933331460300507,1.8142893972076077,0.7290152550950347
0.019544084088052135,1.8122579887755712,0.7713867327879889
0.020154836715803762,1.8101911148682144,0.8144789836377643
0.020765589343555393,1.8080909103791756,0.858246051596031
0.02137634197130702,1.8059595016050456,0.9026421434174505
0.021987094599058652,1.8037990022701327,0.9476217098151525
0.02259784722681028,1.8016115097183074,0.9931395227736908
0.02320859985456191,1.7993991012782218,1.0391507489095595
0.023819352482313542,1.79716383080718,1.0856110187971653
0.02443010511006517,1.7949077254178836,1.1324764922035633
0.025040857737816797,1.792632782391145,1.1797039192004994
0.025651610365568428,1.7903409662769045,1.2272506971453816
0.026262362993320056,1.7880342061848122,1.2750749235445198
0.026873115621071687,1.7857143932649338,1.3231354448321613
0.027483868248823314,1.783383378378242,1.3713919011173032
0.028094620876574942,1.781042969955946,1.4198047669673781
0.028705373504326573,1.7786949320459715,1.4683353883127748
0.0293161261320782,1.7763409825443983,1.5169460155704038
0.029926878759829835,1.7739827916089712,1.5655998330955028
0.030537631387581463,1.7716219802514468,1.6142609850826453
0.03114838401533309,1.7692601191050135,1.6628945980447065
0.03175913664308472,1.7668987273626597,1.711466800006498
0.03236988927083635,1.7645392718820276,1.7599447365561622
0.03298064189858798,1.7621831664519014,1.8082965839010372
0.03359139452633961,1.7598317712153622,1.8564915590797526
0.034202147154091235,1.757486392244241,1.9044999274829435
0.03481289978184286,1.7551482812594397,1.9522930078371565
0.0354236524095945,1.7528186354914768,1.9998431748067023
0.036034405037346125,1.7504985976754275,2.0471238593659824
0.03664515766509775,1.7481892561744368,2.0941095470951794
0.03725591029284938,1.7458916452258066,2.1407757745478397
0.037866662920601014,1.7436067453036006,2.187099123836275
0.038477415548352635,1.7413354835917392,2.2330572155772836
0.03908816817610427,1.739078734561503,2.2786287003352617
0.039698920803855904,1.7368373206472931,2.3237932486955533
0.040309673431607525,1.7346120130146323,2.3685315400946743
0.04092042605935916,1.7324035324143277,2.4128252505295587
0.04153117868711079,1.7302125501168069,2.456657039260106
0.04214193131486242,1.7280396889206375,2.500010534614552
0.04275268394261404,1.7258855242294089,2.54287031899998
0.04336343657036568,1.7237505851911055,2.5852219132135064
0.043974189198117304,1.7216353558943074,2.6270517601437366
0.04458494182586893,1.7195402766155643,2.6683472079446653
0.04519569445362056,1.717465745112451,2.709096492757702
0.045806447081372194,1.7154121179569168,2.7492887210518164
0.04641719970912382,1.7133797119036362,2.78891385164375
0.04702795233687545,1.711368805288245,2.827962677455419
0.047638704964627084,1.7093796394504608,2.8664268070593626
0.048249457592378704,1.7074124201772305,2.9042986460561724
0.04886021022013034,1.7054673191612109,2.94157137832366
0.049470962847881966,1.7035444754700402,2.978238947171391
0.050081715475633594,1.7016439970220163,3.0142960364295055
0.05069246810338522,1.6997659620639876,3.049738051496173
0.051303220731136856,1.6979104206473974,3.084561100363097
0.05191397335888848,1.6960773960986284,3.1187619746355493
0.05252472598664011,1.6942668864799773,3.1523381305586846
0.053135478614391746,1.6924788660377237,3.1852876700593833
0.05374623124214337,1.6907132866340104,3.217609321809414
0.054356983869895,1.6889700791593882,3.2493024223138107
0.05496773649764663,1.6872491549230584,3.2803668970247974
0.05557848912539826,1.6855504070181,3.3108032414818576
0.056189241753149884,1.6838737116590545,3.340612502474615
0.05679999438090152,1.6822189294895156,3.3697962592255815
0.057410747008653146,1.6805859068575364,3.3983566045890505
0.05802149963640477,1.6789744770567736,3.426296126259648
0.0586322522641564,1.6773844615316162,3.4536178879872708
0.059243004891908035,1.6758156710445729,3.4803254107915107
0.05985375751965967,1.6742679068044704,3.5064226541710335
0.06046451014741129,1.6727409615541637,3.531913997303691
0.061075262775162925,1.671234620616595,3.556804220232479
0.06168601540291455,1.6697486628982328,3.58109848503444
0.06229676803066618,1.6682828618491112,3.6048023169707237
0.0629075206584178,1.6668369863787582,3.627921585615867
0.06351827328616944,1.6654108017275593,3.650462485967142
0.06412902591392107,1.6640040702931602,3.6724315195352757
0.0647397785416727,1.6626165524117138,3.6938354754198133
0.06535053116942433,1.6612480070938604,3.714681411373378
0.06596128379717596,1.6598981927155234,3.734976634861888
0.0665720364249276,1.6585668676636343,3.754728684127414
0.06718278905267921,1.6572537909371383,3.773945309265247
0.06779354168043085,1.655958722703614,3.7926344533244607
0.06840429430818247,1.6546814248120334,3.810804233446346
0.06901504693593409,1.6534216612622985,3.8284629220557282
0.06962579956368573,1.6521791986321823,3.845618928120571
0.07023655219143736,1.6509538064625031,3.862280778498482
0.070847304819189,1.6497452576013985,3.8784570993905048
0.07145805744694061,1.6485533285086111,3.8941565979218375
0.07206881007469225,1.6473777995208334,3.9093880438738364
0.07267956270244387,1.646218455079162,3.9241602515894636
0.0732903153301955,1.6450750839198283,3.9384820620795207
0.07390106795794714,1.6439474792293776,3.9523623253538935
0.07451182058569876,1.642835438765553,3.9658098830068402
0.0751225732134504,1.641738764945187,3.978833551084489
0.07573332584120203,1.6406572649004028,3.9914421032628904
0.07634407846895366,1.639590750504545,4.003644254368357
0.07695483109670527,1.6385390383691876,4.015448644268344
0.0775655837244569,1.6375019498136973,4.026863822166861
0.07817633635220854,1.6364793108087752,4.037898231332182
0.07878708897996017,1.6354709518954835,4.048560194292317
0.07939784160771181,1.6344767080812288,4.058857898526603
0.08000859423546343,1.6334964187142147,4.068799382686522
0.08061934686321505,1.6325299273379017,4.078392523377194
0.08123009949096668,1.63157708152697,4.087645022529293
0.08184085211871832,1.630637732706335,4.096564395392449
0.08245160474646994,1.6297117359547464,4.105157959180083
0.08306235737422157,1.628798949794485,4.113432822393601
0.08367311000197321,1.627899235968693,4.121395874854268
0.08428386262972484,1.6270124592078459,4.129053778469578
0.08489461525747646,1.6261384869868665,4.136412958758941
0.08550536788522808,1.6252771892743842,4.143479597163014
0.08611612051297972,1.6244284382755936,4.150259624159029
0.08672687314073135,1.623592108170189,4.156758713202745
0.08733762576848299,1.6227680748467719,4.162982275515056
0.08794837839623461,1.621956215635187,4.168935455731471
0.08855913102398623,1.621156409038114,4.174623128427388
0.08916988365173786,1.620368534463316,4.180049895533131
0.0897806362794895,1.6195924719578054,4.185220084647127
0.09039138890724112,1.6188281019452633,4.1901377482563795
0.09100214153499275,1.6180753049679186,4.194806663867509
0.09161289416274439,1.617333961434101,4.199230335051989
0.09222364679049602,1.6166039513726282,4.203411993403968
0.09283439941824764,1.615885154195139,4.207354601407833
0.09344515204599926,1.6151774484674348,4.211060856209014
0.0940559046737509,1.614480711690845,4.214533194278693
0.09466665730150253,1.613794820094577,4.217773796959957
0.09527740992925417,1.6131196484399513,4.2207845968802005
0.09588816255700579,1.6124550698373776,4.2235672852117
0.09649891518475741,1.6118009555768442,4.22612331975772
0.09710966781250904,1.6111571749726563,4.228453933840774
0.09772042044026068,1.6105235952230796,4.2305601459649775
0.09833117306801231,1.6099000812854807,4.232442770221563
0.09894192569576393,1.609286495767493,4.234102427404771
0.09955267832351557,1.6086826988346696,4.235539556801371
0.10016343095126719,1.6080885481349958,4.236754428614098
0.10077418357901882,1.607503898740598,4.237747156978631
0.10138493620677044,1.6069286031068746,4.238517713528087
0.10199568883452208,1.6063625110492354,4.239065941460027
0.10260644146227371,1.605805469737521,4.239391570054729
0.10321719409002535,1.605257323708172,4.239494229596242
0.10382794671777695,1.6047179148940443,4.239373466640779
0.10443869934552859,1.6041870826717963,4.23902875957921
0.10504945197328022,1.6036646639266334,4.238459534436537
0.10566020460103186,1.6031504931341418,4.237665180851014
0.10627095722878349,1.602644402458893,4.236645068173714
0.10688170985653511,1.6021462218694007,4.235398561629857
0.10749246248428675,1.6016557792689878,4.2339250384804386
0.10810321511203837,1.6011729006419988,4.232223904123898
0.10871396773979,1.6006974102147946,4.2302946080776165
0.10932472036754162,1.6002291306308518,4.228136659777426
0.10993547299529326,1.599767883139286,4.2257496441358136
0.11054622562304489,1.599313487796007,4.22313323679776
0.11115697825079653,1.5988657636767203,4.220287219036749
0.11176773087854816,1.598424529100908,4.217211492232481
0.11237848350629977,1.5979896018658855,4.213906091873137
0.1129892361340514,1.597560799490009,4.210371201028797
0.11359998876180304,1.5971379394640504,4.206607163242084
0.11421074138955467,1.5967208395097485,4.202614494785059
0.11482149401730629,1.5963093178445096,4.198393896234441
0.11543224664505793,1.595903193451199,4.193946263318277
0.11604299927280955,1.5955022863519739,4.189272696990552
0.11665375190056118,1.595106417885083,4.184374512694589
0.1172645045283128,1.5947154109835282,4.179253248774749
0.11787525715606444,1.5943290904545364,4.1739106740059695
0.11848600978381607,1.5939472832587274,4.168348794206131
0.1190967624115677,1.5935698187879193,4.162569857906668
0.11970751503931934,1.593196529140496,4.156576361055808
0.12031826766707095,1.592827249393289,4.150371050734876
0.12092902029482258,1.5924618178689356,4.143956927870321
0.12153977292257422,1.5921000763977085,4.137337248928901
0.12215052555032585,1.5917418705728272,4.130515526587452
0.12276127817807747,1.591387049998309,4.123495529371278
0.1233720308058291,1.591035468528425,4.116281280260016
0.12398278343358073,1.590686984497894,4.108877054263553
0.12459353606133236,1.5903414609419633,4.101287374974587
0.125204288689084,1.5899987658055832,4.093517010106727
0.1258150413168356,1.5896587721409148,4.085570966032995
0.12642579394458725,1.5893213582924746,4.077454481341762
0.12703654657233887,1.588986408069252,4.069173019430418
0.12764729920009052,1.5886538109032033,4.060732260161512
0.12825805182784214,1.588323461993564,4.052138090609206
0.12886880445559376,1.5879952624364824,4.043396594925936
0.1294795570833454,1.58766911933955,4.034514043364489
0.13009030971109703,1.5873449459208167,4.025496880490779
0.13070106233884865,1.587022661591984,4.016351712627361
0.13131181496660027,1.5867021920255042,4.007085294571105
0.13192256759435192,1.5863834692053553,3.9977045156268622
0.13253332022210354,1.5860664314613575,3.9882163850065546
0.1331440728498552,1.5857510234869134,3.9786280166405934
0.13375482547760678,1.5854371963401432,3.968946613454126
0.13436557810535843,1.5851249074284115,3.9591794511588443
0.13497633073311005,1.5848141204763257,3.949333861615387
0.1355870833608617,1.584504805477316,3.9394172158212046
0.13619783598861332,1.5841969386289851,3.929436906581432
0.13680858861636494,1.5838905022524155,3.9194003309175147
0.13741934124411656,1.5835854846957567,3.9093148722752074
0.13803009387186818,1.5832818802223678,3.899187882587609
0.13864084649961983,1.5829796888839056,3.889026664254439
0.13925159912737145,1.5826789163787605,3.8788384520951285
0.1398623517551231,1.582379573896294,3.868630395337232
0.14047310438287472,1.5820816779473719,3.8584095396962526
0.14108385701062634,1.581785250181719,3.8481828096089585
0.141694609638378,1.5814903171926666,3.8379569906758086
0.1423053622661296,1.581196910309898,3.8277387123714948
0.14291611489388123,1.5809050653808074,3.8175344310797437
0.14352686752163288,1.5806148225411558,3.8073504135083507
0.1441376201493845,1.5803262259757027,3.797192720539168
0.14474837277713615,1.5800393236695238,3.7870671915649923
0.14535912540488774,1.5797541671507627,3.7769794293671044
0.14596987803263936,1.5794708112255667,3.7669347855817654
0.146580630660391,1.5791893137059878,3.756938346804994
0.14719138328814263,1.578909735131638,3.746994921381465
0.14780213591589428,1.578632138485902,3.7371090269226506
0.1484128885436459,1.5783565889075377,3.7272848785959574
0.14902364117139752,1.5780831533984743,3.7175263782249486
0.14963439379914917,1.5778119005286548,3.7078371042387412
0.1502451464269008,1.5775429001387495,3.6982203025047546
0.15085589905465244,1.577276223041601,3.6886788780787327
0.15146665168240406,1.577011940723215,3.679215387901054
0.15207740431015568,1.5767501250441645,3.669832034466437
0.15268815693790733,1.5764908479422224,3.660530660491885
0.15329890956565892,1.5762341811370633,3.651312744603751
0.15390966219341054,1.5759801958378519,3.642179398062654
0.1545204148211622,1.5757289624545323,3.6331313625411146
0.1551311674489138,1.5754805503136142,3.6241690089662306
0.15574192007666546,1.5752350273792408,3.6152923374366215
0.15635267270441708,1.574992459980313,3.6065009782193718
0.1569634253321687,1.5747529125444077,3.5977941938285145
0.15757417795992035,1.5745164473392343,3.589170882186161
0.15818493058767197,1.5742831242223259,3.5806295808602764
0.15879568321542362,1.574053000399656,3.572168472373119
0.15940643584317524,1.5738261301938272,3.5637853905679524
0.16001718847092686,1.5736025648224832,3.555477828023058
0.1606279410986785,1.5733823521875192,3.547242944491477
0.1612386937264301,1.5731655366756765,3.5390775763495705
0.16184944635418172,1.5729521589710584,3.5309782470292452
0.16246019898193337,1.5727422558800561,3.522941178405254
0.163070951609685,1.5725358601691697,3.5149623031107686
0.16368170423743664,1.5723330004161398,3.507037277744888
0.16429245686518826,1.5721337008747898,3.4991614969371447
0.16490320949293988,1.5719379813539223,3.491330108230221
0.16551396212069153,1.5717458571105902,3.483538027738436
0.16612471474844315,1.5715573387580049,3.475779956537243
0.1667354673761948,1.5713724321883071,3.4680503977366355
0.16734622000394642,1.5711911385103874,3.460343674189074
0.16795697263169804,1.5710134540028922,3.4526539467797934
0.16856772525944969,1.570839370082508,3.444975233244935
0.16917847788720128,1.570668873287574,3.4373014274616898
0.16978923051495293,1.5705019452770208,3.4296263191523844
0.17039998314270455,1.570338562844602,3.4219436139426205
0.17101073577045617,1.5701786979483148,3.4142469537127984
0.17162148839820782,1.570022317754892,3.406529937179671
0.17223224102595944,1.5698693846991647,3.398786140645121
0.17284299365371106,1.569719856558091,3.391009138846979
0.1734537462814627,1.5695736865391654,3.3831925258478983
0.17406449890921433,1.5694308233829024,3.3753299358951168
0.17467525153696598,1.5692912114790345,3.3674150641860847
0.1752860041647176,1.5691547909960308,3.359441687474779
0.17589675679246922,1.5690214980234882,3.3514036844510207
0.17650750942022086,1.5688912647269264,3.3432950558296493
0.17711826204797246,1.5687640195144639,3.3351099440838197
0.1777290146757241,1.5686396872148223,3.326842652758321
0.17833976730347573,1.5685181892660742,3.3184876653019004
0.17895051993122735,1.5683994439145148,3.310039663355364
0.179561272558979,1.568283366423,3.3014935444372235
0.18017202518673062,1.5681698692880808,3.292844438968419
0.18078277781448224,1.5680588624652203,3.2840877265793753
0.18139353044223389,1.5679502536013725,3.2752190516477615
0.1820042830699855,1.5678439482741562,3.2662343380123895
0.18261503569773715,1.5677398502368747,3.2571298028176425
0.18322578832548878,1.567637861668574,3.2479019694402034
0.1838365409532404,1.5675378834283582,3.2385476794557557
0.18444729358099204,1.5674398153131288,3.2290641036052414
0.18505804620874364,1.5673435563179463,3.219448751724281
0.18566879883649529,1.5672490048981829,3.2096994816024695
0.1862795514642469,1.5671560592326308,3.199814506740748
0.18689030409199853,1.5670646174867457,3.189792402984145
0.18750105671975018,1.5669745780751971,3.1796321140024495
0.1881118093475018,1.5668858399229033,3.1693329556044545
0.18872256197525342,1.566798302723741,3.1588946188678455
0.18933331460300507,1.566711867196128,3.148317172074926
0.18994406723075669,1.566626435334689,3.1376010614461034
0.19055481985850833,1.5665419106572376,3.126747110669245
0.19116557248625995,1.5664581984463177,3.115756519224213
0.19177632511401158,1.5663752059845741,3.1046308595092733
0.19238707774176322,1.5662928427832445,3.093372072775283
0.19299783036951482,1.5662110208030888,3.0819824638840414
0.19360858299726647,1.5661296546671044,3.070464694904105
0.19421933562501809,1.5660486618643978,3.0588217775660493
0.1948300882527697,1.565967962944624,3.047057064601603
0.19544084088052135,1.5658874817024293,3.0351742399933137
0.19605159350827298,1.5658071453513782,3.0231773081670044
0.19666234613602462,1.5657268846868726,3.011070582161968
0.19727309876377624,1.565646634237615,2.9988586708159173
0.19788385139152787,1.5655663324052016,2.9865464650071347
0.1984946040192795,1.5654859215914805,2.974139122997835
0.19910535664703113,1.5654053483133417,2.961642054925833
0.19971610927478275,1.5653245633046495,2.949060906494327
0.20032686190253438,1.5652435216050775,2.936401541912775
0.200937614530286,1.5651621826356379,2.9236700261428976
0.20154836715803764,1.5650805102607497,2.910872606508111
0.20215911978578927,1.5649984728367294,2.898015693723453
0.20276987241354089,1.5649160432466334,2.8851058424088225
0.20338062504129253,1.564833198921417,2.8721497311460507
0.20399137766904415,1.5647499218474337,2.8591541421449165
0.2046021302967958,1.5646661985603174,2.8461259405814143
0.20521288292454742,1.5645820201253655,2.8330720536756626
0.20582363555229904,1.5644973821045385,2.819999449574496
0.2064343881800507,1.564412284510281,2.806915116106527
0.2070451408078023,1.5643267317463603,2.7938260394764876
0.2076558934355539,1.5642407325360017,2.7807391829665984
0.20826664606330555,1.5641542998376008,2.7676614657109835
0.20887739869105718,1.564067450748354,2.7545997416122665
0.20948815131880882,1.5639802063961672,2.741560778463116
0.21009890394656044,1.5638925918202486,2.728551237341859
0.21070965657431207,1.563804635840813,2.7155776523438915
0.2113204092020637,1.563716370918362,2.7026464107131334
0.21193116182981533,1.5636278330030244,2.6897637334358038
0.21254191445756698,1.563539061374491,2.6769356563564024
