frequency,refractiveIndex,absorption
0.0006107526277516292,4.886300846942291,0.9259630687870714
0.0012215052555032584,3.115861023121905,1.4797274450479398
0.0018322578832548875,2.385603414302217,1.8002327223559347
0.002443010511006517,1.9983975943325467,2.0022735455488734
0.003053763138758146,1.766137282101283,2.1324337323011417
0.003664515766509775,1.6169967817528408,2.2152816166423857
0.004275268394261404,1.5173207487849414,2.266156354259311
0.004886021022013034,1.4490047745927976,2.2955890572009303
0.005496773649764663,1.4013271071064275,2.31104400799077
0.006107526277516292,1.3675299865357016,2.3177452840262194
0.006718278905267922,1.3432006603571207,2.3192211227158706
0.00732903153301955,1.3254053342131784,2.317755330405088
0.00793978416077118,1.3121742880568894,2.3147665573560605
0.008550536788522809,1.302174675312259,2.311102726156655
0.009161289416274438,1.2944965557702655,2.3072509555428087
0.009772042044026067,1.2885119675199563,2.3034775550279347
0.010382794671777697,1.2837820904618458,2.2999170908986186
0.010993547299529326,1.2799960566474746,2.2966272901206084
0.011604299927280955,1.276930479910422,2.2936221817374864
0.012215052555032585,1.2744225127729458,2.290891807119605
0.012825805182784214,1.2723517458627374,2.288413797482054
0.013436557810535843,1.2706279159530651,2.2861600832300804
0.014047310438287471,1.2691824592810028,2.284100711121545
0.0146580630660391,1.2679626351501405,2.282205953998455
0.015268815693790731,1.2669273863776123,2.2804474200493376
0.01587956832154236,1.266044387031041,2.2787985823892485
0.01649032094929399,1.2652879114391773,2.2772349788707884
0.017101073577045618,1.2646372780521777,2.2757342300496806
0.01771182620479725,1.2640757003774346,2.2742759623052895
0.018322578832548876,1.2635894294674765,2.2728416866973817
0.018933331460300507,1.2631671075183184,2.2714146623772065
0.019544084088052135,1.262799275946121,2.269979760398415
0.020154836715803762,1.2624779976438636,2.2685233360875454
0.020765589343555393,1.262196564444481,2.2670331136321487
0.02137634197130702,1.2619492687506066,2.2654980839614125
0.021987094599058652,1.2617312239052818,2.2639084155635993
0.02259784722681028,1.261538221889838,2.2622553771428047
0.02320859985456191,1.2613666198289928,2.260531270682972
0.023819352482313542,1.261213248889608,2.258729373388551
0.02443010511006517,1.261075340706213,2.2568438870055023
0.025040857737816797,1.2609504676115946,2.2548698931312474
0.025651610365568428,1.2608364938055756,2.25280331326065
0.026262362993320056,1.2607315352381423,2.250640872465606
0.026873115621071687,1.2606339264704391,2.248380065756103
0.027483868248823314,1.2605421931492038,2.2460191263138785
0.028094620876574942,1.2604550290162178,2.243556994922917
0.028705373504326573,1.2603712765957098,2.2409932900424834
0.0293161261320782,1.2602899108750825,2.2383282780780527
0.029926878759829835,1.260210025429517,2.2355628435034625
0.030537631387581463,1.260130820547638,2.232698458574726
0.03114838401533309,1.26005159300001,2.229737152452724
0.03175913664308472,1.2599717271597297,2.2266814796192382
0.03236988927083635,1.2598906872385245,2.2235344875291987
0.03298064189858798,1.2598080104453946,2.2202996834921964
0.03359139452633961,1.2597233009101994,2.2169810008189637
0.034202147154091235,1.2596362242433279,2.2135827643041277
0.03481289978184286,1.2595465026260677,2.2101096551456827
0.0354236524095945,1.2594539103455102,2.2065666754247752
0.036034405037346125,1.2593582697036123,2.2029591122871417
0.03664515766509775,1.259259447243022,2.199292501980207
0.03725591029284938,1.2591573502429745,2.195572593908096
0.037866662920601014,1.2590519234473687,2.191805314870946
0.038477415548352635,1.2589431459944056,2.1879967336555217
0.03908816817610427,1.2588310285231201,2.1841530261415527
0.039698920803855904,1.2587156104370487,2.1802804410830103
0.040309673431607525,1.2585969573092548,2.1763852667160473
0.04092042605935916,1.2584751584162075,2.1724737983359943
0.04153117868711079,1.2583503243906125,2.168552306974982
0.04214193131486242,1.2582225849854156,2.16462700929995
0.04275268394261404,1.258092086942857,2.160704038838082
0.04336343657036568,1.2579589919637684,2.1567894186236565
0.043974189198117304,1.2578234747733088,2.152889035347043
0.04458494182586893,1.257685721280097,2.1490086150733645
0.04519569445362056,1.2575459268262559,2.1451537005854195
0.045806447081372194,1.2574042945262847,2.1413296303929927
0.04641719970912382,1.2572610336929366,2.1375415194388077
0.04702795233687545,1.2571163583484466,2.1337942415201927
0.047638704964627084,1.2569704858195394,2.130092413435132
0.048249457592378704,1.2568236354146696,2.1264403808518284
0.04886021022013034,1.2566760271819386,2.1228422058922845
0.049470962847881966,1.2565278807460782,2.119301656412491
0.050081715475633594,1.2563794142228328,2.115822196955017
0.05069246810338522,1.2562308432089988,2.112406981343634
0.051303220731136856,1.2560823798463072,2.1090588468843494
0.05191397335888848,1.2559342319572604,2.105780310132708
0.05252472598664011,1.255786602250977,2.10257356418336
0.053135478614391746,1.2556396875970337,2.099440477434708
0.05374623124214337,1.255493678365268,2.096382593778759
0.054356983869895,1.2553487578294542,2.0934011341641696
0.05496773649764663,1.2552051016327708,2.0904969994786624
0.05557848912539826,1.2550628773129502,2.0876707746956313
0.056189241753149884,1.254922243885027,2.084922734228533
0.05679999438090152,1.2547833514796034,2.0822528484357976
0.057410747008653146,1.2546463410345843,2.079660791218143
0.05802149963640477,1.254511344038361,2.07714594864952
0.0586322522641564,1.254378482322464,2.074707428582295
0.059243004891908035,1.2542478679017428,2.0723440711666035
0.05985375751965967,1.2541196028601798,2.0700544602232616
0.06046451014741129,1.2539937792804785,2.067836935408799
0.061075262775162925,1.253870479215623,2.0656896051106366
0.06168601540291455,1.2537497747006288,2.0636103600094056
0.06229676803066618,1.2536317278027558,2.061596887244729
0.0629075206584178,1.2535163907084763,2.0596466851196937
0.06351827328616944,1.2534038058455164,2.0577570782783763
0.06412902591392107,1.2532940060383109,2.055925233289646
0.0647397785416727,1.2531870146952233,2.0541481745695402
0.06535053116942433,1.2530828460258807,2.052422800573441
0.06596128379717596,1.2529815052869788,2.0507459001883186
0.0665720364249276,1.2528829890548938,2.0491141692545036
0.06718278905267921,1.2527872855234288,2.0475242271456437
0.06779354168043085,1.252694374824991,2.045972633335016
0.06840429430818247,1.2526042293734756,2.044455903875982
0.06901504693593409,1.2525168142270895,2.0429705277243153
0.06962579956368573,1.252432087469322,2.0415129828303535
0.07023655219143736,1.2523500006062225,2.040079751929513
0.070847304819189,1.2522704989781082,2.0386673379606095
0.07145805744694061,1.2521935221837859,2.037272279042838
0.07206881007469225,1.2521190045153359,2.035891162944014
0.07267956270244387,1.2520468754014658,2.034520640974951
0.0732903153301955,1.2519770598574216,2.0331574412475986
0.07390106795794714,1.2519094789394132,2.031798381237712
0.07451182058569876,1.2518440502014976,2.030440379596584
0.0751225732134504,1.2517806881528606,2.0290804671604787
0.07573332584120203,1.2517193047134345,2.0277157971110227
0.07634407846895366,1.2516598096658094,2.0263436542449154
0.07695483109670527,1.2516021111014186,2.0249614633166537
0.0775655837244569,1.2515461158590189,2.0235667964239075
0.07817633635220854,1.2514917299535364,2.022157379411145
0.07878708897996017,1.2514388589934158,2.020731097273623
0.07939784160771181,1.2513874085846868,2.0192859985502993
0.08000859423546343,1.2513372847200526,2.0178202987010248
0.08061934686321505,1.2512883941514086,2.0163323824700714
0.08123009949096668,1.2512406447443147,2.014820805244879
0.08184085211871832,1.2511939458130683,2.0132842934255617
0.08245160474646994,1.251148208435166,2.011721743827294
0.08306235737422157,1.2511033457440792,2.010132222144036
0.08367311000197321,1.2510592731994254,2.0085149605081583
0.08428386262972484,1.2510159088337727,2.006869354186195
0.08489461525747646,1.2509731734754785,2.005194957456404
0.08550536788522808,1.250930990947122,2.0034914787185927
0.08611612051297972,1.2508892882392644,2.001758774891188
0.08672687314073135,1.2508479956594252,1.9999968451543204
0.08733762576848299,1.2508070469563362,1.9982058241010547
0.08794837839623461,1.2507663794196804,1.9963859743616672
0.08855913102398623,1.2507259339556906,1.994537678767945
0.08916988365173786,1.2506856551391163,1.9926614321260938
0.0897806362794895,1.2506454912422151,1.9907578326677415
0.09039138890724112,1.2506053942415478,1.9888275732489007
0.09100214153499275,1.2505653198034836,1.986871432366507
0.09161289416274439,1.2505252272494225,1.9848902650613653
0.09222364679049602,1.2504850795018432,1.9828849937750455
0.09283439941824764,1.2504448430123762,1.980856599226416
0.09344515204599926,1.2504044876731615,1.9788061113712756
0.0940559046737509,1.2503639867128264,1.9767346005058068
0.09466665730150253,1.2503233165784589,1.9746431685715145
0.09527740992925417,1.2502824568049882,1.9725329407159085
0.09588816255700579,1.2502413898734175,1.9704050571594611
0.09649891518475741,1.250200101059356,1.968260665415419
0.09710966781250904,1.2501585782733071,1.9661009129048947
0.09772042044026068,1.2501168118941608,1.9639269400053478
0.09833117306801231,1.2500747945973145,1.9617398735660942
0.09894192569576393,1.2500325211788286,1.9595408209200222
0.09955267832351557,1.2499899883769774,1.957330864416074
0.10016343095126719,1.249947194692522,1.955111056492547
0.10077418357901882,1.2499041402089728,1.952882415306688
0.10138493620677044,1.249860826414061,1.9506459209316256
0.10199568883452208,1.2498172560235694,1.948402512127276
0.10260644146227371,1.249773432808614,1.946153083687607
0.10321719409002535,1.249729361427388,1.943898484362462
0.10382794671777695,1.2496850472623156,1.941639515348247
0.10443869934552859,1.2496404962634817,1.9393769293379086
0.10504945197328022,1.2495957147991261,1.937111430117025
0.10566020460103186,1.2495507095139127,1.9348436726894567
0.10627095722878349,1.2495054871955995,1.9325742639127401
0.10688170985653511,1.249460054650664,1.9303037636204843
0.10749246248428675,1.2494144185893443,1.9280326862062456
0.10810321511203837,1.2493685855204915,1.9257615026408585
0.10871396773979,1.2493225616565333,1.9234906428929486
0.10932472036754162,1.24927635282879,1.9212204987203123
0.10993547299529326,1.249229964413287,1.9189514267981105
0.11054622562304489,1.2491834012671519,1.9166837521482922
0.11115697825079653,1.2491366676756037,1.91441777183345
0.11176773087854816,1.2490897673094699,1.9121537588772515
0.11237848350629977,1.2490427031931073,1.9098919663729361
0.1129892361340514,1.2489954776825345,1.907632631740835
0.11359998876180304,1.2489480924535257,1.905375981095651
0.11421074138955467,1.2489005484993532,1.9031222336842961
0.11482149401730629,1.248852846137824,1.9008716063553452
0.11543224664505793,1.24880498502719,1.8986243180216789
0.11604299927280955,1.248756964190482,1.8963805940786596
0.11665375190056118,1.2487087820477627,1.8941406707411992
0.1172645045283128,1.2486604364557663,1.8919047992642368
0.11787525715606444,1.2486119247543523,1.889673250012635
0.11848600978381607,1.2485632438191767,1.8874463163480852
0.1190967624115677,1.2485143901199547,1.8852243183024524
0.11970751503931934,1.2484653597836786,1.8830076060089889
0.12031826766707095,1.2484161486621257,1.8807965628649728
0.12092902029482258,1.248366752402995,1.8785916084016727
0.12153977292257422,1.2483171665239938,1.8763932008399018
0.12215052555032585,1.248267386489201,1.8742018393120412
0.12276127817807747,1.2482174077870334,1.8720180657339531
0.1233720308058291,1.24816722600915,1.8698424663129662
0.12398278343358073,1.2481168369296418,1.8676756726808281
0.12459353606133236,1.2480662365838642,1.865518362643293
0.125204288689084,1.2480154213462982,1.8633712605408228
0.1258150413168356,1.2479643880068403,1.8612351372176137
0.12642579394458725,1.2479131338449527,1.8591108095989477
0.12703654657233887,1.2478616567011303,1.8569991398794872
0.12764729920009052,1.24780995504518,1.8549010343278391
0.12825805182784214,1.2477580280408351,1.852817441715151
0.12886880445559376,1.2477058756062658,1.8507493513779951
0.1294795570833454,1.2476534984700909,1.8486977909280538
0.13009030971109703,1.2476008982225288,1.8466638236233186
0.13070106233884865,1.2475480773613694,1.8446485454174957
0.13131181496660027,1.2474950393324946,1.8426530817062234
0.13192256759435192,1.2474417885647084,1.8406785837903505
0.13253332022210354,1.2473883304986915,1.8387262250780867
0.1331440728498552,1.247334671609927,1.8367971970491446
0.13375482547760678,1.2472808194254923,1.8348927050051766
0.13436557810535843,1.2472267825346524,1.8330139636317835
0.13497633073311005,1.2471725705932275,1.8311621923981447
0.1355870833608617,1.2471181943217466,1.8293386108209522
0.13619783598861332,1.2470636654974414,1.827544433619756
0.13680858861636494,1.2470089969401605,1.8257808657910928
0.13741934124411656,1.2469542024923286,1.8240490976288468
0.13803009387186818,1.2468992969930974,1.8223502997182521
0.13864084649961983,1.2468442962468715,1.820685617930721
0.13925159912737145,1.246789216986413,1.8190561684462827
0.1398623517551231,1.246734076830764,1.8174630328300116
0.14047310438287472,1.2466788942382343,1.8159072531881186
0.14108385701062634,1.246623688454737,1.8143898274287118
0.141694609638378,1.2465684794577614,1.8129117046513885
0.1423053622661296,1.246513287896296,1.811473780688888
0.14291611489388123,1.2464581350270219,1.810076893823065
0.14352686752163288,1.2464030426471149,1.8087218206963456
0.1441376201493845,1.2463480330239993,1.8074092724386943
0.14474837277713615,1.2462931288224044,1.8061398910289763
0.14535912540488774,1.2462383530290813,1.8049142459083
0.14596987803263936,1.2461837288755455,1.803732830861739
0.146580630660391,1.246129279759203,1.8025960611834342
0.14719138328814263,1.246075029163228,1.8015042711388753
0.14780213591589428,1.2460210005755556,1.8004577117367122
0.1484128885436459,1.2459672174073488,1.7994565488211516
0.14902364117139752,1.2459137029113019,1.798500861494621
0.14963439379914917,1.2458604801001298,1.797590640878974
0.1502451464269008,1.2458075716655959,1.7967257892221948
0.15085589905465244,1.245754999898416,1.7959061193561274
0.15146665168240406,1.2457027866093793,1.795131354509371
0.15207740431015568,1.2456509530520044,1.7944011284781494
0.15268815693790733,1.2455995198470589,1.7937149861565427
0.15329890956565892,1.245548506909242,1.7930723844260652
0.15390966219341054,1.245497933376333,1.792472693403262
0.1545204148211622,1.2454478175410928,1.7919151980425558
0.1551311674489138,1.245398176786194,1.7913991000902043
0.15574192007666546,1.2453490275224417,1.7909235203839193
0.15635267270441708,1.2453003851305418,1.790487501491212
0.1569634253321687,1.245252263906648,1.7900900106782918
0.15757417795992035,1.2452046770119174,1.7897299431998586
0.15818493058767197,1.2451576364262822,1.7894061258988965
0.15879568321542362,1.24511115290663,1.7891173211041265
0.15940643584317524,1.245065235949577,1.7888622308115352
0.16001718847092686,1.2450198937589894,1.788639501135034
0.1606279410986785,1.2449751332184036,1.7884477270100358
0.1612386937264301,1.2449309598684697,1.788285457132488
0.16184944635418172,1.244887377889526,1.7881511991146637
0.16246019898193337,1.2448443900893946,1.7880434248378392
0.163070951609685,1.2448019978964686,1.7879605759808597
0.16368170423743664,1.244760201358136,1.7879010697025117
0.16429245686518826,1.2447189991445688,1.7878633044546237
0.16490320949293988,1.2446783885578838,1.7878456659018687
0.16551396212069153,1.2446383655466546,1.7878465329234103
0.16612471474844315,1.2445989247257374,1.7878642836707637
0.1667354673761948,1.2445600594013444,1.7878973016556075
0.16734622000394642,1.2445217616012798,1.787943981840714
0.16795697263169804,1.2444840221102258,1.788002736706778
0.16856772525944969,1.2444468305099443,1.788072002267621
0.16917847788720128,1.2444101752242365,1.788150244006096
0.16978923051495293,1.2443740435684771,1.7882359627030167
0.17039998314270455,1.2443384218035196,1.7883277001315971
0.17101073577045617,1.244303295193743,1.7884240445901676
0.17162148839820782,1.2442686480689944,1.7885236362464305
0.17223224102595944,1.244234463890153,1.7886251722671327
0.17284299365371106,1.2442007253180287,1.7887274117078438
0.1734537462814627,1.2441674142852857,1.7888291801384946
0.17406449890921433,1.2441345120710658,1.7889293739814507
0.17467525153696598,1.2441019993779705,1.7890269645402062
0.1752860041647176,1.2440698564110464,1.7891210016982106
0.17589675679246922,1.2440380629584096,1.7892106172689632
0.17650750942022086,1.24400659847313,1.7892950279801993
0.17711826204797246,1.243975442155994,1.7893735380769205
0.1777290146757241,1.2439445730387537,1.7894455415299457
0.17833976730347573,1.243913970067473,1.7895105238387767
0.17895051993122735,1.2438836121855759,1.7895680634197448
0.179561272558979,1.2438534784162056,1.7896178325726226
0.18017202518673062,1.2438235479435087,1.7896595980212475
0.18078277781448224,1.2437938001924624,1.789693221025979
0.18139353044223389,1.243764214906875,1.7897186570682337
0.1820042830699855,1.2437347722251968,1.789735955109644
0.18261503569773715,1.2437054527537994,1.7897452564308118
0.18322578832548878,1.2436762376373887,1.789746793056866
0.1838365409532404,1.2436471086262386,1.7897408857793382
0.18444729358099204,1.2436180481399557,1.7897279417860488
0.18505804620874364,1.2435890393274986,1.7897084519127824
0.18566879883649529,1.243560066123204,1.7896829875325697
0.1862795514642469,1.243531113298595,1.7896521971002257
0.18689030409199853,1.2435021665097699,1.7896168023715862
0.18750105671975018,1.2434732123401995,1.7895775943184755
0.1881118093475018,1.243444238338783,1.7895354287619205
0.18872256197525342,1.243415233053045,1.7894912217473935
0.18933331460300507,1.2433861860573803,1.7894459446870519
0.18994406723075669,1.2433570879762812,1.7894006192948535
0.19055481985850833,1.2433279305025102,1.7893563123412803
0.19116557248625995,1.243298706410209,1.789314130254965
0.19177632511401158,1.2432694095629582,1.7892752135990102
0.19238707774176322,1.2432400349168293,1.7892407314500496
0.19299783036951482,1.243210578518499,1.7892118757081898
0.19360858299726647,1.2431810374985133,1.7891898553659276
0.19421933562501809,1.2431514100598164,1.789175890763971
0.1948300882527697,1.2431216954616795,1.7891712078614395
0.19544084088052135,1.2430918939991848,1.7891770325475091
0.19605159350827298,1.2430620069784368,1.7891945850208475
0.19666234613602462,1.243032036687696,1.7892250742625257
0.19727309876377624,1.2430019863646362,1.7892696926271063
0.19788385139152787,1.2429718601599526,1.7893296105757148
0.1984946040192795,1.242941663097548,1.7894059715738073
0.19910535664703113,1.242911401031546,1.7894998871751653
0.19971610927478275,1.2428810806003834,1.7896124323124802
0.20032686190253438,1.2428507091782424,1.789744640813518
0.200937614530286,1.2428202948240936,1.7898975011606169
0.20154836715803764,1.242789846228619,1.7900719525097513
0.20215911978578927,1.2427593726592963,1.7902688809840968
0.20276987241354089,1.2427288839039163,1.7904891162554732
0.20338062504129253,1.2426983902128221,1.7907334284256398
0.20399137766904415,1.242667902240141,1.791002525217857
0.2046021302967958,1.2426374309842925,1.7912970494877223
0.20521288292454742,1.2426069877280437,1.791617577060653
0.20582363555229904,1.2425765839783889,1.7919646149020363
0.2064343881800507,1.2425462314065139,1.7923385996244612
0.2070451408078023,1.2425159417881129,1.7927398963350079
0.2076558934355539,1.2424857269443104,1.7931687978241244
0.20826664606330555,1.2424555986834358,1.793625524096107
0.20887739869105718,1.2424255687438939,1.7941102222398428
0.20948815131880882,1.2423956487383614,1.794622966637011
0.21009890394656044,1.2423658500995336,1.7951637595036012
0.21070965657431207,1.2423361840276337,1.795732531759204
0.2113204092020637,1.242306661439888,1.7963291442172693
0.21193116182981533,1.2422772929221617,1.796953389088166
