frequency,refractiveIndex,absorption
0.0006107526277516292,4.539308903678692,0.22768577485882802
0.0012215052555032584,3.9750437255924216,0.7049108572475159
0.0018322578832548875,3.4567868678530522,1.2012401641645476
0.002443010511006517,3.0456813240932474,1.6437414078911483
0.003053763138758146,2.7268400820816163,2.022279805059474
0.003664515766509775,2.477676844398555,2.342210881551492
0.004275268394261404,2.280215882254317,2.6114784579688686
0.004886021022013034,2.1215312627560468,2.8375110988829375
0.005496773649764663,1.9924569315171365,3.0266570650699953
0.006107526277516292,1.8864230230422736,3.184253705229102
0.006718278905267922,1.798631542978028,3.314820874975641
0.00732903153301955,1.7255032695401626,3.422242512544703
0.00793978416077118,1.6643096740318284,3.5099057557760105
0.008550536788522809,1.612926586882939,3.580797127838994
0.009161289416274438,1.5696678910970192,3.637563778637886
0.009772042044026067,1.53317228548199,3.6825497753699614
0.010382794671777697,1.5023254975923006,3.7178171864648655
0.010993547299529326,1.4762061792236116,3.7451602571660665
0.011604299927280955,1.4540474997996475,3.766118741282627
0.012215052555032585,1.4352090247154254,3.7819938986050237
0.012825805182784214,1.4191552882682354,3.7938683309439134
0.013436557810535843,1.4054387717179426,3.802629128264168
0.014047310438287471,1.3936858958389597,3.8089928841075786
0.0146580630660391,1.3835852198719452,3.813530918727277
0.015268815693790731,1.3748773852307559,3.8166932831102804
0.01587956832154236,1.3673465280588755,3.8188305579572153
0.01649032094929399,1.3608129728932463,3.820212922733562
0.017101073577045618,1.3551270562485516,3.821046348718159
0.01771182620479725,1.350163942920082,3.8214860323034747
0.018322578832548876,1.3458193049615295,3.8216473376347793
0.018933331460300507,1.3420057406065837,3.8216145858379664
0.019544084088052135,1.3386498199370582,3.8214480393242765
0.020154836715803762,1.3356896556404516,3.821189407447804
0.020765589343555393,1.333072909770598,3.8208661611741412
0.02137634197130702,1.3307551600290028,3.820494900445259
0.021987094599058652,1.3286985609789668,3.820083975015923
0.02259784722681028,1.3268707463456135,3.8196355209310537
0.02320859985456191,1.3252439279459314,3.819147041763054
0.023819352482313542,1.3237941548099708,3.8186126363465274
0.02443010511006517,1.3225007027787103,3.8180239525703183
0.025040857737816797,1.3213455704311314,3.817370929108711
0.025651610365568428,1.3203130617582335,3.816642373040751
0.026262362993320056,1.3193894397198325,3.8158264104148834
0.026873115621071687,1.3185626378338091,3.8149108383487973
0.027483868248823314,1.3178220193828196,3.813883400698846
0.028094620876574942,1.3171581757877253,3.812732004269834
0.028705373504326573,1.3165627572800123,3.811444888632506
0.0293161261320782,1.3160283302811644,3.8100107596084287
0.029926878759829835,1.315548256925678,3.8084188941666914
0.030537631387581463,1.315116592994877,3.806659222693775
0.03114838401533309,1.3147280012001594,3.8047223932258154
0.03175913664308472,1.314377677298235,3.8025998211757033
0.03236988927083635,1.3140612869624406,3.800283727274509
0.03298064189858798,1.3137749116934971,3.797767165821054
0.03359139452633961,1.313515002346104,3.7950440448531184
0.034202147154091235,1.31327833908743,3.792109139484988
0.03481289978184286,1.3130619968000923,3.7889580993743643
0.0354236524095945,1.3128633151038382,3.785587451066713
0.036034405037346125,1.3126798723034292,3.7819945958025802
0.03664515766509775,1.3125094626804807,3.7781778032509115
0.03725591029284938,1.31235007663846,3.774136201540412
0.037866662920601014,1.3121998832861466,3.769869763893965
0.038477415548352635,1.3120572151083512,3.765379292122961
0.03908816817610427,1.3119205544258465,3.760666397204369
0.039698920803855904,1.3117885213910674,3.7557334771402853
0.040309673431607525,1.311659863303707,3.7505836922849376
0.04092042605935916,1.311533445062047,3.7452209383153416
0.04153117868711079,1.3114082405927003,3.7396498170172667
0.04214193131486242,1.3112833251242506,3.7338756050572175
0.04275268394261404,1.3111578681896556,3.7279042209113946
0.04336343657036568,1.311031127258841,3.721742190124964
0.043974189198117304,1.310902441917053,3.7153966090769877
0.04458494182586893,1.3107712285166597,3.7088751074291357
0.04519569445362056,1.3106369752404967,3.7021858094381375
0.045806447081372194,1.310499237523788,3.695337294313716
0.04641719970912382,1.3103576337893672,3.6883385558039783
0.04702795233687545,1.3102118414575539,3.681198961190299
0.047638704964627084,1.310061593197735,3.6739282098719164
0.048249457592378704,1.3099066733936353,3.666536291718353
0.04886021022013034,1.3097469147984837,3.659033445363825
0.049470962847881966,1.3095821953599331,3.651430116613419
0.050081715475633594,1.309412435197726,3.6437369171250595
0.05069246810338522,1.3092375937197824,3.6359645835247636
0.051303220731136856,1.309057666864689,3.6281239371053084
0.05191397335888848,1.3088726844605316,3.620225844250454
0.05252472598664011,1.3086827076916843,3.612281177718009
0.053135478614391746,1.3084878266665758,3.604300778906032
0.05374623124214337,1.3082881580806474,3.596295421216843
0.054356983869895,1.3080838429697121,3.588275774623783
0.05496773649764663,1.3078750445497487,3.5802523715356074
0.05557848912539826,1.3076619461398478,3.572235574043584
0.056189241753149884,1.3074447491655812,3.564235542626337
0.05679999438090152,1.3072236712405108,3.556262206377706
0.057410747008653146,1.3069989443239094,3.548325234813312
0.05802149963640477,1.3067708129530407,3.5404340113023856
0.0586322522641564,1.3065395325485538,3.532597608162283
0.059243004891908035,1.3063053677916991,3.5248247634448835
0.05985375751965967,1.3060685910721836,3.517123859435692
0.06046451014741129,1.3058294810055517,3.5095029028792397
0.061075262775162925,1.3055883210190133,3.501969506937003
0.06168601540291455,1.305345398004662,3.4945308748777073
0.06229676803066618,1.3051010010390198,3.487193785493721
0.0629075206584178,1.3048554201678282,3.479964580231828
0.06351827328616944,1.304608945254984,3.4728491520216274
0.06412902591392107,1.3043618648944786,3.4658529357802688
0.0647397785416727,1.3041144653841719,3.4589809005683185
0.06535053116942433,1.3038670297601944,3.4522375433678967
0.06596128379717596,1.30361983689073,3.445626884451164
0.0665720364249276,1.30337316062791,3.4391524643044806
0.06718278905267921,1.3031272690165154,3.432817342071208
0.06779354168043085,1.302882423558154,3.4266240954741654
0.06840429430818247,1.3026388785295768,3.420574822176893
0.06901504693593409,1.3023968803537649,3.414671142541661
0.06962579956368573,1.3021566670224263,3.4089142037406925
0.07023655219143736,1.3019184675685291,3.403304685176256
0.070847304819189,1.3016825015875053,3.397842805164294
0.07145805744694061,1.3014489788057642,3.392528328835666
0.07206881007469225,1.3012180986951662,3.3873605772083115
0.07267956270244387,1.3009900501321263,3.3823384373832615
0.0732903153301955,1.3007650111000288,3.3774603738168296
0.07390106795794714,1.3005431484336631,3.372724440620838
0.07451182058569876,1.3003246176044103,3.368128294842407
0.0751225732134504,1.3001095625449317,3.3636692106741783
0.07573332584120203,1.2998981155121436,3.359344094545452
0.07634407846895366,1.299690396987282,3.355149501044188
0.07695483109670527,1.2994865156118844,3.351081649619094
0.0775655837244569,1.2992865681585486,3.347136442010567
0.07817633635220854,1.2990906395353377,3.3433094803583474
0.07878708897996017,1.2988988028227324,3.3395960859331097
0.07939784160771181,1.2987111193420418,3.335991318438326
0.08000859423546343,1.2985276387542013,3.332489995827869
0.08061934686321505,1.298348399187895,3.3290867145838567
0.08123009949096668,1.2981734273959529,3.3257758703984286
0.08184085211871832,1.298002738938971,3.3225516792019367
0.08245160474646994,1.297836338395108,3.31940819847927
0.08306235737422157,1.297674219595003,3.3163393488149064
0.08367311000197321,1.29751636588076,3.3133389356065375
0.08428386262972484,1.2973627503879228,3.310400670885941
0.08489461525747646,1.2972133363493576,3.3075181951853163
0.08550536788522808,1.2970680774199426,3.30468509938626
0.08611612051297972,1.2969269180209326,3.301894946488312
0.08672687314073135,1.2967897937028594,3.2991412932331357
0.08733762576848299,1.296656631525784,3.296417711520543
0.08794837839623461,1.296527350455705,3.293717809552215
0.08855913102398623,1.2964018617758886,3.2910352526391202
0.08916988365173786,1.2962800695118535,3.288363783609116
0.0897806362794895,1.2961618708687266,3.285697242751659
0.09039138890724112,1.2960471566796354,3.2830295872374853
0.09100214153499275,1.295935811863792,3.2803549099522873
0.09161289416274439,1.295827715892883,3.27766745768483
0.09222364679049602,1.295722743264365,3.274961648611623
0.09283439941824764,1.2956207639802262,3.2722320890224745
0.09344515204599926,1.2955216440297772,3.269473589233405
0.0940559046737509,1.2954252458749962,3.2666811786362304
0.09466665730150253,1.2953314289369602,3.2638501198370196
0.09527740992925417,1.295240050081877,3.2609759218388743
0.09588816255700579,1.2951509641052361,3.2580543522281227
0.09649891518475741,1.2950640242126035,3.2550814483267785
0.09710966781250904,1.2949790824955927,3.252053527278163
0.09772042044026068,1.2948959904015651,3.2489671950369963
0.09833117306801231,1.2948145991956368,3.2458193542396914
0.09894192569576393,1.2947347604135995,3.242607210935325
0.09955267832351557,1.2946563263044029,3.2393282801625767
0.10016343095126719,1.2945791502608888,3.235980390362871
0.10077418357901882,1.2945030872375183,3.2325616866251043
0.10138493620677044,1.2944279941538983,3.22907063276221
0.10199568883452208,1.2943537302829655,3.2255060122251535
0.10260644146227371,1.2942801576227678,3.221866927864862
0.10321719409002535,1.2942071412508538,3.2181528005576325
0.10382794671777695,1.2941345496603598,3.21436336671452
0.10443869934552859,1.294062255076973,3.210498674699893
0.10504945197328022,1.2939901337560353,3.206559080189045
0.10566020460103186,1.2939180662591474,3.202545240499043
0.10627095722878349,1.293845937709722,3.198458107931219
0.10688170985653511,1.2937736380270408,3.194298922167678
0.10749246248428675,1.2937010621384588,3.1900692017676153
0.10810321511203837,1.2936281101695035,3.1857707348127997
0.10871396773979,1.293554687611713,3.181405568754366
0.10932472036754162,1.2934807054681556,3.176975999515765
0.10993547299529326,1.2934060803766683,3.172484559909077
0.11054622562304489,1.2933307347109453,3.1679340074236295
0.11115697825079653,1.2932545966597018,3.1633273114476954
0.11176773087854816,1.2931776002842201,3.1586676399848543
0.11237848350629977,1.2930996855546766,3.1539583459277956
0.1129892361340514,1.2930207983657196,3.1492029529525793
0.11359998876180304,1.292940890531848,3.144405141096376
0.11421074138955467,1.2928599197632107,3.1395687320817514
0.11482149401730629,1.2927778496225066,3.1346976744497277
0.11543224664505793,1.2926946494637268,3.129796028563063
0.11604299927280955,1.2926102943535311,3.1248679515399016
0.11665375190056118,1.2925247649761016,3.1199176821767374
0.1172645045283128,1.292438047522349,3.1149495259175186
0.11787525715606444,1.2923501335643894,3.1099678399241415
0.11848600978381607,1.2922610199162332,3.1049770183011947
0.1190967624115677,1.2921707084816512,3.0999814775254837
0.11970751503931934,1.2920792060901984,3.0949856421285005
0.12031826766707095,1.2919865243223916,3.0899939306771818
0.12092902029482258,1.2918926793250314,3.0850107420956094
0.12153977292257422,1.2917976916176748,3.0800404423675256
0.12215052555032585,1.291701585891248,3.0750873516564843
0.12276127817807747,1.2916043907997805,3.0701557318776005
0.1233720308058291,1.2915061387462365,3.065249774751863
0.12398278343358073,1.291406865663394,3.0603735903708924
0.12459353606133236,1.2913066107907014,3.0555311962971787
0.125204288689084,1.2912054164480247,3.0507265072218113
0.1258150413168356,1.2911033278071573,3.0459633251987563
0.12642579394458725,1.2910003926619518,3.04124533047201
0.12703654657233887,1.2908966611978838,3.036576072909087
0.12764729920009052,1.2907921857618394,3.031958964051625
0.12825805182784214,1.2906870206328658,3.0273972697912916
0.12886880445559376,1.2905812217946087,3.0228941036766854
0.1294795570833454,1.2904748467100986,3.018452420854439
0.13009030971109703,1.2903679540995314,3.0140750126455687
0.13070106233884865,1.2902606037216333,3.0097645017557833
0.13131181496660027,1.2901528561591715,3.0055233381165083
0.13192256759435192,1.2900447726091289,3.0013537953513882
0.13253332022210354,1.2899364146780197,2.9972579678611497
0.1331440728498552,1.2898278441827924,2.993237768518099
0.13375482547760678,1.2897191229577198,2.9892949269597984
0.13436557810535843,1.2896103126676433,2.985430988470077
0.13497633073311005,1.2895014746279028,2.9816473134341237
0.1355870833608617,1.2893926696312468,2.9779450773530476
0.13619783598861332,1.289283957781982,2.9743252714023556
0.13680858861636494,1.2891753983375909,2.970788703517455
0.13741934124411656,1.2890670495580114,2.9673359999885256
0.13803009387186818,1.2889589685627447,2.9639676075461567
0.13864084649961983,1.288851211195922,2.960683795918389
0.13925159912737145,1.2887438318994402,2.9574846608390475
0.1398623517551231,1.2886368835942428,2.9543701274866776
0.14047310438287472,1.2885304175697985,2.951339954332958
0.14108385701062634,1.288424483381807,2.9483937373787397
0.141694609638378,1.2883191287581348,2.9455309147557416
0.1423053622661296,1.288214399512963,2.942750771671432
0.14291611489388123,1.2881103394691067,2.9400524456744437
0.14352686752163288,1.2880069903884497,2.9374349322175854
0.1441376201493845,1.2879043919104105,2.9348970904954443
0.14474837277713615,1.2878025814983476,2.932437649533416
0.14535912540488774,1.2877015943937868,2.930055214505018
0.14596987803263936,1.2876014635783428,2.927748273254241
0.146580630660391,1.2875022197431902,2.9255152029998386
0.14719138328814263,1.2874038912659223,2.9233542771985808
0.14780213591589428,1.2873065041946277,2.9212636725444767
0.1484128885436459,1.2872100822390005,2.9192414760813796
0.14902364117139752,1.2871146467682837,2.9172856924064217
0.14963439379914917,1.2870202168158429,2.9153942509421342
0.1502451464269008,1.286926809090151,2.913565013255336
0.15085589905465244,1.2868344379919536,2.9117957804013064
0.15146665168240406,1.2867431156373883,2.9100843002720165
0.15207740431015568,1.2866528518868052,2.9084282749278234
0.15268815693790733,1.2865636543790426,2.906825367892309
0.15329890956565892,1.2864755285709017,2.9052732113905217
0.15390966219341054,1.2863884777815546,2.9037694135115752
0.1545204148211622,1.2863025032416198,2.902311565276784
0.1551311674489138,1.2862176041466287,2.900897247595578
0.15574192007666546,1.2861337777146136,2.8995240380917036
0.15635267270441708,1.286051019247529,2.898189517783201
0.1569634253321687,1.2859693221962307,2.8968912776001154
0.15757417795992035,1.2858886782287258,2.8956269247249224
0.15818493058767197,1.2858090773014066,2.894394088741192
0.15879568321542362,1.2857305077329884,2.893190427576971
0.15940643584317524,1.2856529562808579,2.892013633230191
0.16001718847092686,1.2855764082195544,2.890861437264235
0.1606279410986785,1.285500847421097,2.889731616062708
0.1612386937264301,1.2854262564368764,2.8886219958333803
0.16184944635418172,1.285352616580835,2.887530457352226
0.16246019898193337,1.2852799080136603,2.886454940439366
0.163070951609685,1.2852081098277202,2.8853934481597223
0.16368170423743664,1.2851372001324746,2.8843440507422033
0.16429245686518826,1.285067156140104,2.8833048892121433
0.16490320949293988,1.284997954251102,2.8822741787327257
0.16551396212069153,1.284929570139581,2.8812502116521803
0.16612471474844315,1.284861978838054,2.880231360254409
0.1667354673761948,1.2847951548214596,2.879216079211732
0.16734622000394642,1.2847290720902056,2.8782029077394333
0.16795697263169804,1.284663704252018,2.877190471452659
0.16856772525944969,1.2845990246023864,2.876177483927242
0.16917847788720128,1.2845350062034153,2.875162747966939
0.16978923051495293,1.2844716219608907,2.8741451565803184
0.17039998314270455,1.2844088446993907,2.873123693671595
0.17101073577045617,1.2843466472352727,2.8720974344504366
0.17162148839820782,1.2842850024473904,2.8710655455665894
0.17223224102595944,1.2842238833453912,2.870027284975861
0.17284299365371106,1.2841632631354718,2.868982001544934
0.1734537462814627,1.2841031152834708,2.8679291344028752
0.17406449890921433,1.2840434135751915,2.8668682120481206
0.17467525153696598,1.2839841321738636,2.8657988512201498
0.1752860041647176,1.2839252456746624,2.8647207555456355
0.17589675679246922,1.2838667291562105,2.863633713969423
0.17650750942022086,1.283808558229012,2.8625375989810724
0.17711826204797246,1.2837507090807665,2.861432364648114
0.1777290146757241,1.2836931585185305,2.8603180444675944
0.17833976730347573,1.2836358840077053,2.8591947490475613
0.17895051993122735,1.2835788637078351,2.8580626636308035
0.179561272558979,1.2835220765052184,2.856922045472773
0.18017202518673062,1.2834655020423396,2.855773221086331
0.18078277781448224,1.2834091207441394,2.8546165833656847
0.18139353044223389,1.2833529138411581,2.853452588602038
0.1820042830699855,1.2832968633895838,2.8522817534034846
0.18261503569773715,1.283240952288259,2.851104651531604
0.18322578832548878,1.2831851642926975,2.849921910667136
0.1838365409532404,1.2831294840261784,2.848734209116889
0.18444729358099204,1.2830738969879867,2.8475422724739934
0.18505804620874364,1.283018389558879,2.84634687024326
0.18566879883649529,1.2829629490038599,2.8451488124431514
0.1862795514642469,1.2829075634723597,2.8439489461957272
0.18689030409199853,1.2828522219959062,2.842748152315361
0.18750105671975018,1.282796914483396,2.84154734190682
0.1881118093475018,1.2827416317140647,2.8403474529829453
0.18872256197525342,1.2826863653282694,2.8391494471115437
0.18933331460300507,1.282631107816189,2.837954306100998
0.18994406723075669,1.2825758525045632,2.8367630287332894
0.19055481985850833,1.2825205935415787,2.8355766275529457
0.19116557248625995,1.2824653258800276,2.8343961257197665
0.19177632511401158,1.2824100452588485,2.8332225539327793
0.19238707774176322,1.2823547481831774,2.8320569474323265
0.19299783036951482,1.2822994319030205,2.830900343086666
0.19360858299726647,1.282244094390674,2.8297537765689853
0.19421933562501809,1.2821887343170029,2.828618279630204
0.1948300882527697,1.2821333510267,2.8274948774724105
0.19544084088052135,1.282077944512639,2.8263845862272627
0.19605159350827298,1.2820225153894353,2.8252884105431826
0.19666234613602462,1.2819670648663253,2.824207341284676
0.19727309876377624,1.281911594719472,2.823142353346621
0.19788385139152787,1.281856107263806,2.822094403585852
0.1984946040192795,1.2818006053245012,2.821064428871912
0.19910535664703113,1.2817450922081866,2.820053344258423
0.19971610927478275,1.281689571673989,2.819062041276028
0.20032686190253438,1.2816340479045014,2.8180913863474006
0.200937614530286,1.2815785254767622,2.8171422193245625
0.20154836715803764,1.2815230093333316,2.8162153521481335
0.20215911978578927,1.2814675047535464,2.8153115676279112
0.20276987241354089,1.2814120173250283,2.8144316183438125
0.20338062504129253,1.2813565529155164,2.813576225665768
0.20399137766904415,1.2813011176450957,2.812746078890994
0.2046021302967958,1.281245717858879,2.811941834496567
0.20521288292454742,1.281190360100209,2.8111641155052256
0.20582363555229904,1.2811350510844264,2.810413510961703
0.2064343881800507,1.2810797976732617,2.8096905755170694
0.2070451408078023,1.2810246068498938,2.808995829117936
0.2076558934355539,1.280969485694716,2.8083297567975363
0.20826664606330555,1.2809144413618498,2.8076928085652484
0.20887739869105718,1.2808594810564398,2.807085399391102
0.20948815131880882,1.2808046120127554,2.806507909281715
0.21009890394656044,1.2807498414731324,2.8059606834438298
0.21070965657431207,1.2806951766677692,2.8054440325316348
0.2113204092020637,1.2806406247954,2.804958232974
0.21193116182981533,1.2805861930048599,2.8045035273775842
0.21254191445756698,1.2805318883775503,2.8040801250017724
