frequency,refractiveIndex,absorption
0.0006107526277516292,2.313346417075296,0.0020383833796007327
0.0012215052555032584,2.312911690321754,0.008145342176814402
0.0018322578832548875,2.3121890616610052,0.018296385247886543
0.002443010511006517,2.311181383702111,0.03245096860346488
0.003053763138758146,2.3098926079928446,0.05055290144037558
0.003664515766509775,2.30832774397687,0.07253090310883306
0.004275268394261404,2.3064928076989113,0.09829930001601012
0.004886021022013034,2.304394761291779,0.12775884897877834
0.005496773649764663,2.302041444433352,0.16079767149310412
0.006107526277516292,2.299441499077329,0.1972922818351466
0.006718278905267922,2.2966042888363156,0.2371086908751396
0.00732903153301955,2.2935398144297587,0.2801035669732257
0.00793978416077118,2.2902586266040084,0.3261254353171086
0.008550536788522809,2.2867717378906365,0.37501589751726305
0.009161289416274438,2.2830905344961283,0.42661085414291405
0.009772042044026067,2.279226689516965,0.48074171409747357
0.010382794671777697,2.275192078554031,0.5372365762232444
0.010993547299529326,2.2709986986658124,0.5959213702193529
0.011604299927280955,2.2666585914561046,0.6566209457806311
0.012215052555032585,2.26218377094493,0.7191601007499502
0.012825805182784214,2.2575861567254547,0.7833645409613001
0.013436557810535843,2.2528775127692153,0.8490617662820026
0.014047310438287471,2.2480693921101955,0.9160818790961422
0.0146580630660391,2.2431730875176767,0.9842583130740659
0.015268815693790731,2.2381995881602648,1.0534284815203294
0.01587956832154236,2.2331595421697443,1.1234343458688605
0.01649032094929399,2.228063224934223,1.1941229059930905
0.017101073577045618,2.222920512884943,1.2653466149190291
0.01771182620479725,2.217740862489728,1.3369637212761638
0.018322578832548876,2.2125332941273705,1.4088385434043904
0.018933331460300507,2.207306380490228,1.4808416794668522
0.019544084088052135,2.2020682391455897,1.552850158214297
0.020154836715803762,2.1968265288786646,1.624747535220982
0.020765589343555393,2.1915884494399642,1.6964239394825533
0.02137634197130702,2.1863607443262083,1.7677760752482599
0.021987094599058652,2.1811497062352245,1.8387071838684967
0.02259784722681028,2.1759611848507863,1.909126970288242
0.02320859985456191,2.170800596631606,1.9789514986207908
0.023819352482313542,2.1656729362992833,2.048103061005297
0.02443010511006517,2.1605827897416696,2.1165100236963776
0.025040857737816797,2.1555343480706397,2.1841066540632936
0.025651610365568428,2.1505314225958503,2.250832931896719
0.026262362993320056,2.1455774604983295,2.3166343481398197
0.026873115621071687,2.140675561009495,2.3814616938810746
0.027483868248823314,2.135828491921977,2.445270842174272
0.028094620876574942,2.1310387062783613,2.5080225249879287
0.028705373504326573,2.1263083591026124,2.5696821073355496
0.0293161261320782,2.121639324056125,2.630219360400176
0.029926878759829835,2.117033209916498,2.6896082352441586
0.030537631387581463,2.1124913767917066,2.7478266384858876
0.03114838401533309,2.1080149519958806,2.8048562111331132
0.03175913664308472,2.1036048455250214,2.8606821115849175
0.03236988927083635,2.099261765081992,2.9152928036508263
0.03298064189858798,2.094986230610052,2.9686798502884737
0.03359139452633961,2.0907785883029275,3.0208377136261784
0.034202147154091235,2.0866390240673414,3.071763561716704
0.03481289978184286,2.08256757642076,3.1214570823591883
0.0354236524095945,2.0785641488132947,3.1699203042308923
0.036034405037346125,2.0746285213678894,3.2171574254836637
0.03664515766509775,2.0707603620376935,3.263174649886738
0.03725591029284938,2.0669592371833287,3.3079800305296865
0.037866662920601014,2.063224621576331,3.351583321045007
0.038477415548352635,2.0595559078377783,3.3939958342587593
0.03908816817610427,2.0559524153236746,3.4352303081384448
0.039698920803855904,2.0524133984705846,3.475300778871674
0.040309673431607525,2.0489380546166527,3.514222460880707
0.04092042605935916,2.0455255313144907,3.5520116335554173
0.04153117868711079,2.042174933153405,3.588685534469313
0.04214193131486242,2.038885328109192,3.624262258829275
0.04275268394261404,2.0356557534402735,3.658760664900305
0.04336343657036568,2.0324852211492863,3.6922002851408044
0.043974189198117304,2.0293727230294016,3.7246012427798436
0.04458494182586893,2.0263172353146675,3.7559841735692574
0.04519569445362056,2.023317722953578,3.786370152443415
0.045806447081372194,2.0203731435248358,3.8157806248244905
0.04641719970912382,2.0174824508139984,3.844237342316972
0.04702795233687545,2.0146445980692977,3.871762302541211
0.047638704964627084,2.0118585409544965,3.8983776928644924
0.048249457592378704,2.0091232402161436,3.9241058377973617
0.04886021022013034,2.006437664082072,3.9489691498320987
0.049470962847881966,2.0038007904074098,3.972990083511485
0.050081715475633594,2.001211608583811,3.996191092525485
0.05069246810338522,1.998669121226981,4.018594589645387
0.051303220731136856,1.9961723456570162,4.040222909315897
0.05191397335888848,1.9937203151854168,4.061098272735723
0.05252472598664011,1.991312080222048,4.081242755268956
0.053135478614391746,1.9889467092147375,4.100678256040334
0.05374623124214337,1.9866232894335483,4.119426469576957
0.054356983869895,1.9843409276112485,4.137508859370178
0.05496773649764663,1.9820987504508685,4.154946633240267
0.05557848912539826,1.9798959050107185,4.171760720396473
0.056189241753149884,1.9777315589766675,4.1879717500930465
0.05679999438090152,1.9756049008310017,4.203600031791508
0.057410747008653146,1.9735151399266209,4.218665536746098
0.05802149963640477,1.9714615064748893,4.233187880937257
0.0586322522641564,1.9694432514549618,4.247186309285479
0.059243004891908035,1.9674596464519793,4.260679681083213
0.05985375751965967,1.9655099834310668,4.273686456589819
0.06046451014741129,1.963593574453671,4.2862246847383
0.061075262775162925,1.961709751342396,4.298311991909752
0.06168601540291455,1.9598578653000889,4.30996557173424
0.06229676803066618,1.9580372864885771,4.3212021758812815
0.0629075206584178,1.956247403572148,4.3320381058083
0.06351827328616944,1.9544876232304753,4.3424892054360145
0.06412902591392107,1.9527573696454592,4.352570854725665
0.0647397785416727,1.9510560839660949,4.362297964133293
0.06535053116942433,1.949383223755233,4.371684969919242
0.06596128379717596,1.9477382624218231,4.38074583029364
0.0665720364249276,1.946120688642001,4.3894940223795995
0.06718278905267921,1.944530005772083,4.397942539976238
0.06779354168043085,1.9429657312563915,4.40610389210739
0.06840429430818247,1.9414273960325392,4.41399010233973
0.06901504693593409,1.9399145439366539,4.421612708856968
0.06962579956368573,1.9384267311107952,4.428982765275223
0.07023655219143736,1.9369635254146678,4.436110842187408
0.070847304819189,1.9355245058435284,4.443007029421832
0.07145805744694061,1.934109261954044,4.449680939002067
0.07206881007469225,1.9327173932997075,4.456141708795023
0.07267956270244387,1.931348508877239,4.462398006831567
0.0732903153301955,1.9300022265853163,4.468458036287526
0.07390106795794714,1.928678172696782,4.474329541108118
0.07451182058569876,1.9273759813454288,4.48001981226255
0.0751225732134504,1.9260952940282678,4.485535694610909
0.07573332584120203,1.9248357591241403,4.490883594368165
0.07634407846895366,1.9235970314293895,4.496069487147367
0.07695483109670527,1.9223787717112357,4.501098926564154
0.0775655837244569,1.9211806462793901,4.5059770533840755
0.07817633635220854,1.9200023265763573,4.510708605192792
0.07878708897996017,1.918843488786811,4.515297926569598
0.07939784160771181,1.9177038134663253,4.519748979742271
0.08000859423546343,1.9165829851896976,4.524065355702899
0.08061934686321505,1.9154806922190022,4.528250285760695
0.08123009949096668,1.9143966261914804,4.532306653509676
0.08184085211871832,1.9133304818272872,4.536237007186885
0.08245160474646994,1.9122819566570715,4.54004357239648
0.08306235737422157,1.9112507507693102,4.543728265174654
0.08367311000197321,1.9102365665772658,4.547292705369497
0.08428386262972484,1.909239108605388,4.550738230308937
0.08489461525747646,1.9082580832949454,4.554065908730867
0.08550536788522808,1.907293198828618,4.557276554946241
0.08611612051297972,1.9063441649737531,4.5603707432093445
0.08672687314073135,1.9054106929439478,4.563348822264661
0.08733762576848299,1.9044924952785902,4.566210930043662
0.08794837839623461,1.9035892857399552,4.56895700848103
0.08855913102398623,1.902700779227417,4.571586818421604
0.08916988365173786,1.9018266917083377,4.574099954588887
0.0897806362794895,1.9009667401651318,4.5764958605849175
0.09039138890724112,1.9001206425580033,4.578773843891995
0.09100214153499275,1.899288117802836,4.580933090846776
0.09161289416274439,1.8984688857636713,4.58297268155666
0.09222364679049602,1.8976626672592256,4.584891604729098
0.09283439941824764,1.8968691840828478,4.586688772384125
0.09344515204599926,1.8960881590353276,4.588363034421389
0.0940559046737509,1.8953193159699337,4.589913193011829
0.09466665730150253,1.894562379849068,4.591338016786467
0.09527740992925417,1.8938170768118834,4.592636254792878
0.09588816255700579,1.8930831342522432,4.593806650193117
0.09649891518475741,1.892360280906338,4.594847953674378
0.09710966781250904,1.8916482469493383,4.595758936547204
0.09772042044026068,1.8909467641003694,4.596538403504027
0.09833117306801231,1.8902555657351914,4.597185205014344
0.09894192569576393,1.8895743870058654,4.597698249330908
0.09955267832351557,1.8889029649667641,4.598076514084502
0.10016343095126719,1.8882410387062367,4.598319057443951
0.10077418357901882,1.887588349483258,4.598425028820687
0.10138493620677044,1.8869446408683952,4.598393679096758
0.10199568883452208,1.8863096588884212,4.598224370357226
0.10260644146227371,1.8856831521739166,4.597916585109202
0.10321719409002535,1.8850648721091985,4.59746993496974
0.10382794671777695,1.8844545729839424,4.596884168807972
0.10443869934552859,1.883852012145839,4.5961591803264525
0.10504945197328022,1.8832569501536744,4.595295015069177
0.10566020460103186,1.8826691509302083,4.594291876844773
0.10627095722878349,1.8820883819142487,4.593150133554968
0.10688170985653511,1.88151441421133,4.591870322419205
0.10749246248428675,1.8809470227424252,4.590453154589151
0.10810321511203837,1.8803859863901244,4.588899519147682
0.10871396773979,1.8798310881417513,4.587210486487567
0.10932472036754162,1.8792821152288783,4.585387311068385
0.10993547299529326,1.8787388592627563,4.583431433551077
0.11054622562304489,1.8782011163651569,4.58134448231007
0.11115697825079653,1.877668687294189,4.579128274326884
0.11176773087854816,1.8771413775646262,4.576784815467718
0.11237848350629977,1.8766189975623604,4.574316300152621
0.1129892361340514,1.8761013626525602,4.571725110421167
0.11359998876180304,1.8755882932811967,4.569013814405904
0.11421074138955467,1.8750796150695812,4.566185164222113
0.11482149401730629,1.8745751589016053,4.563242093286122
0.11543224664505793,1.8740747610034056,4.560187713076148
0.11604299927280955,1.8735782630151836,4.557025309349398
0.11665375190056118,1.873085512054957,4.553758337831949
0.1172645045283128,1.8725963607740357,4.550390419398384
0.11787525715606444,1.872110667404055,4.546925334760511
0.11848600978381607,1.8716282957954107,4.543367018683601
0.1190967624115677,1.871149115446984,4.539719553752625
0.11970751503931934,1.8706730015270676,4.5359871637088665
0.12031826766707095,1.8701998348854247,4.532174206380903
0.12092902029482258,1.8697295020564537,4.528285166233167
0.12153977292257422,1.8692618952534537,4.5243246465569085
0.12215052555032585,1.868796912353998,4.520297361328775
0.12276127817807747,1.8683344568764835,4.516208126763348
0.1233720308058291,1.8678744379479095,4.512061852585279
0.12398278343358073,1.8674167702629962,4.507863533049614
0.12459353606133236,1.8669613740347644,4.503618237736023
0.125204288689084,1.8665081749367114,4.499331102145885
0.1258150413168356,1.8660571040367724,4.495007318129771
0.12642579394458725,1.8656080977232394,4.490652124173473
0.12703654657233887,1.8651610976228565,4.486270795570297
0.12764729920009052,1.864716050511329,4.481868634508743
0.12825805182784214,1.8642729082164824,4.477450960102431
0.12886880445559376,1.863831627514355,4.4730230983905725
0.1294795570833454,1.8633921700184923,4.468590372336621
0.13009030971109703,1.8629545020627543,4.4641580918516786
0.13070106233884865,1.8625185945779366,4.459731543869869
0.13131181496660027,1.8620844229625477,4.455315982501687
0.13192256759435192,1.8616519669480558,4.4509166192905125
0.13253332022210354,1.8612212104589685,4.446538613597951
0.1331440728498552,1.8607921414681,4.442187063141592
0.13375482547760678,1.8603647518473738,4.437866994708845
0.13436557810535843,1.859939037214548,4.433583355069843
0.13497633073311005,1.8595149967762246,4.429341002110786
0.1355870833608617,1.8590926331675224,4.425144696208529
0.13619783598861332,1.8586719522887956,4.420999091866871
0.13680858861636494,1.8582529631397768,4.416908729632733
0.13741934124411656,1.85783567765153,4.412878028311209
0.13803009387186818,1.8574201105165824,4.408911277494706
0.13864084649961983,1.857006279017631,4.405012630423778
0.13925159912737145,1.8565942028551765,4.401186097192754
0.1398623517551231,1.8561839039744825,4.3974355383152455
0.14047310438287472,1.8557754063921976,4.393764658660181
0.14108385701062634,1.8553687360230238,4.390177001771457
0.141694609638378,1.854963920506769,4.386675944579994
0.1423053622661296,1.8545609890361399,4.3832646925181065
0.14291611489388123,1.8541599721856077,4.37994627504373
0.14352686752163288,1.8537609017416754,4.376723541580973
0.1441376201493845,1.8533638105348667,4.373599157883319
0.14474837277713615,1.8529687322737483,4.370575602823383
0.14535912540488774,1.852575701381282,4.3676551656128195
0.14596987803263936,1.8521847528337914,4.364839943454871
0.146580630660391,1.8517959220028262,4.36213183963063
0.14719138328814263,1.851409244500179,4.359532562019457
0.14780213591589428,1.8510247560263182,4.357043622052258
0.1484128885436459,1.8506424922224658,4.354666334096799
0.14902364117139752,1.8502624885265537,4.35240181527112
0.14963439379914917,1.84988478003327,4.350250985682243
0.1502451464269008,1.849509401358397,4.348214569085475
0.15085589905465244,1.8491363865076313,4.346293093957939
0.15146665168240406,1.8487657687500587,4.344486894981371
0.15207740431015568,1.8483975804964445,4.342796114925942
0.15268815693790733,1.8480318531824926,4.341220706927668
0.15329890956565892,1.847668617157206,4.3397604371505665
0.15390966219341054,1.8473079015764744,4.338414887823879
0.1545204148211622,1.8469497343019936,4.337183460645002
0.1551311674489138,1.8465941418056202,4.336065380536536
0.15574192007666546,1.8462411490792445,4.335059699746433
0.15635267270441708,1.8458907795502484,4.334165302279355
0.1569634253321687,1.8455430550026202,4.333380908646538
0.15757417795992035,1.8451979955037596,4.332705080921287
0.15818493058767197,1.8448556193370222,4.332136228086366
0.15879568321542362,1.844515942940019,4.33167261165936
0.15940643584317524,1.8441789808486886,4.331312351581908
0.16001718847092686,1.8438447456471425,4.331053432357435
0.1606279410986785,1.8435132479232779,4.330893709422835
0.1612386937264301,1.8431844962301298,4.330830915738127
0.16184944635418172,1.842858497052947,4.330862668578802
0.16246019898193337,1.8425352547819356,4.330986476514175
0.163070951609685,1.8422147716906372,4.331199746556561
0.16368170423743664,1.8418970479198684,4.331499791463395
0.16429245686518826,1.841582081467161,4.331883837176921
0.16490320949293988,1.8412698681816264,4.332349030384103
0.16551396212069153,1.8409604017641537,4.3328924461801215
0.16612471474844315,1.8406536737728534,4.333511095818041
0.1667354673761948,1.8403496736336353,4.3342019345283775
0.16734622000394642,1.8400483886558225,4.334961869391088
0.16795697263169804,1.8397498040526756,4.335787767243051
0.16856772525944969,1.8394539029667027,4.336676462603959
0.16917847788720128,1.83916066649963,4.337624765604712
0.16978923051495293,1.8388700737468886,4.338629469899563
0.17039998314270455,1.8385821018364734,4.339687360547492
0.17101073577045617,1.8382967259720306,4.3407952218448
0.17162148839820782,1.8380139194800067,4.341949845093787
0.17223224102595944,1.8377336538607074,4.3431480362901365
0.17284299365371106,1.837455898843096,4.344386623714342
0.1734537462814627,1.8371806224431557,4.3456624654109985
0.17406449890921433,1.8369077910256482,4.346972456540759
0.17467525153696598,1.8366373693690825,4.348313536590212
0.1752860041647176,1.8363693207337104,4.349682696424779
0.17589675679246922,1.8361036069323655,4.351076985170688
0.17650750942022086,1.835840188403949,4.352493516912554
0.17711826204797246,1.8355790242893748,4.353929477192238
0.1777290146757241,1.8353200725097742,4.355382129297159
0.17833976730347573,1.8350632898467611,4.356848820325152
0.17895051993122735,1.834808632024564,4.358326987014186
0.179561272558979,1.8345560537938148,4.359814161325284
0.18017202518673062,1.8343055090167977,4.361307975768509
0.18078277781448224,1.8340569507539548,4.362806168461248
0.18139353044223389,1.8338103313514404,4.364306587909706
0.1820042830699855,1.8335656025295262,4.365807197504176
0.18261503569773715,1.833322715471648,4.367306079720484
0.18322578832548878,1.8330816209138978,4.368801440019251
0.1838365409532404,1.8328422692347528,4.37029161043702
0.18444729358099204,1.8326046105448501,4.371775052861832
0.18505804620874364,1.832368594776599,4.373250361988978
0.18566879883649529,1.8321341717734423,4.374716267951217
0.1862795514642469,1.8319012913785733,4.376171638620476
0.18689030409199853,1.8316699035229147,4.377615481576456
0.18750105671975018,1.831439958312174,4.379046945740921
0.1881118093475018,1.8312114061127978,4.380465322675348
0.18872256197525342,1.8309841976366352,4.38187004754107
0.18933331460300507,1.830758284024148,4.383260699721623
0.18994406723075669,1.830533616925994,4.384637003108485
0.19055481985850833,1.8303101485828124,4.385998826050743
0.19116557248625995,1.8300878319030673,4.387346180971722
0.19177632511401158,1.8298666205387835,4.388679223654861
0.19238707774176322,1.8296464689590324,4.389998252202957
0.19299783036951482,1.8294273325210348,4.391303705674713
0.19360858299726647,1.829209167538735,4.392596162404589
0.19421933562501809,1.8289919313487317,4.3938763380113235
0.1948300882527697,1.82877558237344,4.395145083101162
0.19544084088052135,1.828560080181375,4.396403380674635
0.19605159350827298,1.8283453855444567,4.397652343243443
0.19666234613602462,1.8281314604922334,4.398893209666542
0.19727309876377624,1.8279182683629458,4.4001273417151205
0.19788385139152787,1.8277057738513436,4.401356220375205
0.1984946040192795,1.8274939430531898,4.40258144189984
0.19910535664703113,1.827282743506389,4.4038047136201195
0.19971610927478275,1.8270721442286832,4.405027849527685
0.20032686190253438,1.826862115751877,4.406252765640385
0.200937614530286,1.8266526301525439,4.4074814751626485
0.20154836715803764,1.8264436610792023,4.408716083454976
0.20215911978578927,1.8262351837759274,4.409958782823683
0.20276987241354089,1.8260271751023973,4.411211847146045
0.20338062504129253,1.8258196135503677,4.41247762634351
0.20399137766904415,1.8256124792565847,4.413758540717924
0.2046021302967958,1.8254057540121496,4.415057075163516
0.20521288292454742,1.8251994212683547,4.416375773271206
0.20582363555229904,1.8249934661390335,4.417717231337512
0.2064343881800507,1.824787875399448,4.4190840922944234
0.2070451408078023,1.8245826374817773,4.42047903957371
0.2076558934355539,1.8243777424672465,4.421904790921563
0.20826664606330555,1.8241731820749687,4.423364092176677
0.20887739869105718,1.8239689496475657,4.424859711028291
0.20948815131880882,1.8237650401336387,4.426394430766843
0.21009890394656044,1.8235614500671784,4.427971044043012
0.21070965657431207,1.823358177543995,4.429592346648612
0.2113204092020637,1.8231552221952663,4.431261131333377
0.21193116182981533,1.8229525851583026,4.432980181671875
0.21254191445756698,1.8227502690446316,4.434752265993066
0.2131526670853186,1.8225482779055122,4.43658013138692
0.21376341971307022,1.8223466171949916,4.438466497799454
