frequency,refractiveIndex,absorption
0.0006107526277516292,2.6214680127186756,0.0031428880504193028
0.0012215052555032584,2.6208415236070186,0.012560873646032044
0.0018322578832548875,2.6197997818730765,0.02822202171972402
0.002443010511006517,2.6183463722212545,0.05007344049004102
0.003053763138758146,2.616486262836774,0.07804177451827768
0.003664515766509775,2.6142257562403746,0.11203388135874148
0.004275268394261404,2.611572427845212,0.15193767873627384
0.004886021022013034,2.6085350534388576,0.19762314622364874
0.005496773649764663,2.6051235269965622,0.24894346295258762
0.006107526277516292,2.6013487703694143,0.3057362610349607
0.006718278905267922,2.5972226364804656,0.3678249731264425
0.00732903153301955,2.592757807703188,0.4350202519374818
0.00793978416077118,2.587967691091582,0.5071214394646288
0.008550536788522809,2.5828663120837585,0.583918064234112
0.009161289416274438,2.5774682082157057,0.6651913458578609
0.009772042044026067,2.571788324265534,0.7507156876235199
0.010382794671777697,2.565841910107593,0.8402601395910279
0.010993547299529326,2.559644422397111,0.9335898166618947
0.011604299927280955,2.5532114310365963,1.0304672582371317
0.012215052555032585,2.546558531201359,1.1306537183052572
0.012825805182784214,2.5397012615289225,1.2339103770291031
0.013436557810535843,2.5326550289105665,1.33999946706652
0.014047310438287471,2.525435040167,1.4486853099129644
0.0146580630660391,2.5180562407469353,1.5597352594529115
0.015268815693790731,2.510533260459494,1.6729205516231143
0.01587956832154236,2.502880366139803,1.7880170606043337
0.01649032094929399,2.4951114210529304,1.9048059632623038
0.017101073577045618,2.4872398507636557,2.0230743146497807
0.01771182620479725,2.479278615138368,2.1426155382681342
0.018322578832548876,2.471240186099207,2.2632298354779903
0.018933331460300507,2.463136530718421,2.3847245189604496
0.019544084088052135,2.4549790992209477,2.5069142754798954
0.020154836715803762,2.4467788174542013,2.6296213634058896
0.020765589343555393,2.4385460833840837,2.752675750534404
0.02137634197130702,2.4302907671838967,2.875915197726781
0.021987094599058652,2.4220222144966637,2.9991852937770433
0.02259784722681028,2.4137492524699584,3.1223394467413783
0.02320859985456191,2.40548019818442,3.2452388367334586
0.023819352482313542,2.3972228691217694,3.367752334919815
0.02443010511006517,2.3889845953442705,3.489756393152709
0.025040857737816797,2.380772233084509,3.611134908364969
0.025651610365568428,2.3725921794713245,3.731779065529376
0.026262362993320056,2.3644503881443786,3.8515871626638525
0.026873115621071687,2.3563523855356143,3.970464421046609
0.027483868248823314,2.3483032876204692,4.088322783498551
0.028094620876574942,2.3403078169650358,4.205080703296557
0.028705373504326573,2.3323703199171315,4.320662926002695
0.0293161261320782,2.3244947838094054,4.435000266234457
0.029926878759829835,2.316684854061185,4.548029381158066
0.030537631387581463,2.308943851082666,4.65969254226357
0.03114838401533309,2.301274786900369,4.769937406775612
0.03175913664308472,2.293680381436579,4.8787167898680055
0.03236988927083635,2.286163078387723,4.985988438680232
0.03298064189858798,2.2787250606576968,5.091714808984459
0.03359139452633961,2.271368265311605,5.1958628452140205
0.034202147154091235,2.2640943980240333,5.298403764445947
0.03481289978184286,2.25690494700313,5.399312844821201
0.0354236524095945,2.2498011963783067,5.498569218794632
0.036034405037346125,2.242784239044702,5.596155671522237
0.03664515766509775,2.2358549889623323,5.6920584446240055
0.03725591029284938,2.2290141929116962,5.786267045496683
0.037866662920601014,2.2222624417109555,5.878774062298363
0.038477415548352635,2.2156001809025447,5.969574984680996
0.03908816817610427,2.2090277209192886,6.058668030307863
0.039698920803855904,2.2025452467419164,6.146053977160225
0.040309673431607525,2.1961528270612996,6.231736001610086
0.04092042605935916,2.1898504229597995,6.315719522212639
0.04153117868711079,2.1836378961270033,6.398012049153992
0.04214193131486242,2.177515016625613,6.478623039273721
0.04275268394261404,2.1714814702237217,6.557563756570382
0.04336343657036568,2.165536865309824,6.63484713808776
0.043974189198117304,2.1596807394070576,6.710487665073055
0.04458494182586893,2.1539125653030107,6.7845012392923305
0.04519569445362056,2.148231756811402,6.856905064385241
0.045806447081372194,2.142637674181562,6.927717532137532
0.04641719970912382,2.1371296291714756,6.9969581135503285
0.04702795233687545,2.1317068897996867,7.064647254582618
0.047638704964627084,2.1263686847910854,7.130806276445471
0.048249457592378704,2.1211142077310905,7.195457280326713
0.04886021022013034,2.115942620942357,7.25862305642588
0.049470962847881966,2.1108530590977006,7.320326997182233
0.050081715475633594,2.1058446325824427,7.380593014579141
0.05069246810338522,2.1009164306189376,7.4394454614117445
0.051303220731136856,2.0960675241656035,7.496909056406893
0.05191397335888848,2.0912969686023164,7.553008813086309
0.05252472598664011,2.086603806213552,7.607769972267137
0.053135478614391746,2.0819870684803106,7.661217938096565
0.05374623124214337,2.077445778191303,7.71337821751939
0.054356983869895,2.07297895138361,7.764276363080567
0.05496773649764663,2.068585599122472,7.813937918966129
0.05557848912539826,2.0642647291296083,7.862388370189883
0.056189241753149884,2.060015347268966,7.909653094833887
0.05679999438090152,2.055836458898535,7.955757319254428
0.057410747008653146,2.0517270700964065,8.000726076166128
0.05802149963640477,2.047686188768992,8.044584165519817
0.0586322522641564,2.0437128256489134,8.087356118091014
0.059243004891908035,2.039805995189804,8.129066161698177
0.05985375751965967,2.0359647163649135,8.169738189971515
0.06046451014741129,2.032188013376114,8.209395733594533
0.061075262775162925,2.0284749162795928,8.248061933942259
0.06168601540291455,2.024824461534286,8.285759519042227
0.06229676803066618,2.021235692478747,8.322510781783693
0.0629075206584178,2.017707659741952,8.358337560304687
0.06351827328616944,2.014239421593233,8.39326122048524
0.06412902591392107,2.010830044236311,8.427302640477508
0.0647397785416727,2.007478602052139,8.460482197204827
0.06535053116942433,2.0041841777950236,8.492819754761525
0.06596128379717596,2.000945862746291,8.524334654647927
0.0665720364249276,1.9977627568295184,8.555045707774587
0.06718278905267921,1.994633968691129,8.584971188170853
0.06779354168043085,1.9915586157499787,8.614128828334707
0.06840429430818247,1.9885358242193183,8.642535816160033
0.06901504693593409,1.9855647291043519,8.670208793379894
0.06962579956368573,1.982644474178394,8.69716385546293
0.07023655219143736,1.9797742119404784,8.723416552903148
0.070847304819189,1.9769531035570662,8.748981893842299
0.07145805744694061,1.9741803187903495,8.773874347964819
0.07206881007469225,1.9714550359154708,8.798107851606996
0.07267956270244387,1.9687764416288225,8.821695814020552
0.0732903153301955,1.9661437309494498,8.844651124734476
0.07390106795794714,1.9635561071154048,8.866986161955591
0.07451182058569876,1.9610127814767946,8.888712801952813
0.0751225732134504,1.9585129733870885,8.90984242936689
0.07573332584120203,1.9560559100941703,8.93038594839192
0.07634407846895366,1.953640826632423,8.950353794770857
0.07695483109670527,1.9512669657170978,8.969755948552201
0.0775655837244569,1.948933577642031,8.988601947552235
0.07817633635220854,1.9466399201816997,9.00690090146989
0.07878708897996017,1.944385258498496,9.024661506600504
0.07939784160771181,1.9421688650559796,9.04189206109557
0.08000859423546343,1.9399900195388073,9.058600480717267
0.08061934686321505,1.9378480087799004,9.074794315035032
0.08123009949096668,1.935742126695359,9.090480764014087
0.08184085211871832,1.933671674227533,9.105666694945135
0.08245160474646994,1.9316359592965842,9.120358659665657
0.08306235737422157,1.929634296760784,9.134562912023595
0.08367311000197321,1.9276660083857509,9.148285425535411
0.08428386262972484,1.925730422822727,9.161531911190323
0.08489461525747646,1.9238268755959451,9.174307835354448
0.08550536788522808,1.9219547090990996,9.18661843772792
0.08611612051297972,1.9201132726008234,9.198468749310765
0.08672687314073135,1.9183019222590778,9.209863610331826
0.08733762576848299,1.9165200211442648,9.220807688098285
0.08794837839623461,1.9147669392708628,9.231305494722378
0.08855913102398623,1.9130420536373014,9.241361404684005
0.08916988365173786,1.911344748273795,9.250979672188612
0.0897806362794895,1.9096744142977815,9.260164448280618
0.09039138890724112,1.9080304499765857,9.26891979767389
0.09100214153499275,1.9064122607969127,9.277249715262423
0.09161289416274439,1.904819259540718,9.28515814227421
0.09222364679049602,1.9032508663670051,9.29264898203454
0.09283439941824764,1.9017065088990426,9.29972611530446
0.09344515204599926,1.900185622316512,9.306393415162592
0.0940559046737509,1.8986876494520317,9.312654761399143
0.09466665730150253,1.897212040891537,9.318514054393285
0.09527740992925417,1.8957582550779328,9.323975228445896
0.09588816255700579,1.8943257584174678,9.32904226454144
0.09649891518475741,1.892914025388226,9.333719202513928
0.09710966781250904,1.8915225386501748,9.338010152595096
0.09772042044026068,1.8901507891561544,9.341919306322115
0.09833117306801231,1.8887982762632216,9.345450946786203
0.09894192569576393,1.8874645078437595,9.348609458204223
0.09955267832351557,1.8861490003957475,9.351399334796888
0.10016343095126719,1.8848512791516148,9.35382518896003
0.10077418357901882,1.8835708781850822,9.355891758716062
0.10138493620677044,1.8823073405154307,9.357603914436085
0.10199568883452208,1.8810602182086138,9.358966664823068
0.10260644146227371,1.879829072474681,9.35998516215118
0.10321719409002535,1.8786134737609612,9.360664706755392
0.10382794671777695,1.877413001840477,9.361010750769083
0.10443869934552859,1.8762272458951006,9.36102890111033
0.10504945197328022,1.8750558045929442,9.360724921716299
0.10566020460103186,1.873898286159527,9.360104735030445
0.10627095722878349,1.8727543084422802,9.3591744227481
0.10688170985653511,1.8716234989679454,9.357940225826098
0.10749246248428675,1.8705054949924924,9.35640854376751
0.10810321511203837,1.869399943543165,9.354585933191428
0.10871396773979,1.8683065014523237,9.35247910570084
0.10932472036754162,1.8672248353827572,9.35009492506376
0.10993547299529326,1.8661546218441725,9.347440403723516
0.11054622562304489,1.8650955472006137,9.344522698656728
0.11115697825079653,1.864047307668571,9.341349106599042
0.11176773087854816,1.863009609305581,9.33792705865912
0.11237848350629977,1.8619821679891562,9.334264114345029
0.1129892361340514,1.8609647093859012,9.330367955026615
0.11359998876180304,1.8599569689107123,9.326246376859388
0.11421074138955467,1.8589586916759957,9.321907283198389
0.11482149401730629,1.8579696324308421,9.317358676527816
0.11543224664505793,1.8569895554901816,9.312608649938294
0.11604299927280955,1.8560182346539071,9.307665378180463
0.11665375190056118,1.8550554531160424,9.302537108326264
0.1172645045283128,1.8541010033640308,9.297232150070792
0.11787525715606444,1.8531546870682571,9.291758865706523
0.11848600978381607,1.8522163149619566,9.286125659803886
0.1190967624115677,1.8512857067116673,9.280340968631412
0.11970751503931934,1.8503626907784414,9.274413249350062
0.12031826766707095,1.8494471042700373,9.268350969016659
0.12092902029482258,1.8485387927843382,9.26216259342943
0.12153977292257422,1.8476376102442922,9.255856575852487
0.12215052555032585,1.846743418724655,9.249441345652329
0.12276127817807747,1.845856088270876,9.242925296881564
0.1233720308058291,1.8449754967104606,9.236316776843887
0.12398278343358073,1.8441015294571788,9.22962407467437
0.12459353606133236,1.8432340793085,9.222855409968092
0.125204288689084,1.8423730462366539,9.216018921490958
0.1258150413168356,1.8415183371737276,9.209122656003393
0.12642579394458725,1.8406698657912326,9.202174557230103
0.12703654657233887,1.839827552274571,9.195182455005376
0.12764729920009052,1.8389913230928618,9.188154054624281
0.12825805182784214,1.838161110764577,9.181096926428747
0.12886880445559376,1.8373368536194568,9.174018495655401
0.1294795570833454,1.8365184955571727,9.166926032573201
0.13009030971109703,1.8357059858032185,9.159826642935235
0.13070106233884865,1.834899278662499,9.152727258769488
0.13131181496660027,1.8340983332711027,9.14563462953131
0.13192256759435192,1.8333031133467372,9.138555313640062
0.13253332022210354,1.8325135869382898,9.131495670418488
0.1331440728498552,1.8317297261750123,9.124461852456099
0.13375482547760678,1.830951507015771,9.117459798411975
0.13436557810535843,1.8301789089988432,9.110495226274171
0.13497633073311005,1.8294119149927133,9.103573627090295
0.1355870833608617,1.8286505109483033,9.096700259181553
0.13619783598861332,1.827894685653096,9.089880142852966
0.13680858861636494,1.8271444304875575,9.083118055608853
0.13741934124411656,1.8263997391842925,9.076418527882964
0.13803009387186818,1.8256606075903237,9.06978583929004
0.13864084649961983,1.8249270334328938,9.063224015404765
0.13925159912737145,1.82419901608916,9.056736825071349
0.1398623517551231,1.8234765563601498,9.05032777824851
0.14047310438287472,1.822759656249316,9.044000124388672
0.14108385701062634,1.8220483187460332,9.037756851353683
0.141694609638378,1.821342547614334,9.031600684863976
0.1423053622661296,1.8206423471871978,9.025534088479105
0.14291611489388123,1.8199477221666653,9.019559264106151
0.14352686752163288,1.819258677430036,9.013678153029316
0.1441376201493845,1.8185752178424077,9.00789243745577
0.14474837277713615,1.8178973480757674,9.002203542568711
0.14535912540488774,1.8172250724348586,8.996612639079952
0.14596987803263936,1.816558394690005,8.991120646271112
0.146580630660391,1.8158973179170685,8.985728235513509
0.14719138328814263,1.8152418443446923,8.980435834253596
0.14780213591589428,1.8145919752089732,8.97524363045234
0.1484128885436459,1.8139477106156718,8.970151577463366
0.14902364117139752,1.813309049410067,8.965159399336725
0.14963439379914917,1.8126759890545434,8.960266596531737
0.1502451464269008,1.8120485255139642,8.955472452022814
0.15085589905465244,1.811426653148898,8.950776037782228
0.15146665168240406,1.8108103646167102,8.946176221620973
0.15207740431015568,1.8101996507805589,8.941671674371133
0.15268815693790733,1.8095945006262746,8.937260877389738
0.15329890956565892,1.808994901187125,8.932942130365545
0.15390966219341054,1.8084008374764262,8.928713559409589
0.1545204148211622,1.8078122924279554,8.92457312540818
0.1551311674489138,1.8072292468441105,8.920518632619398
0.15574192007666546,1.806651679351741,8.916547737491918
0.15635267270441708,1.806079566365565,8.912657957684722
0.1569634253321687,1.8055128820590685,8.90884668126753
0.15757417795992035,1.804951598342782,8.905111176079677
0.15818493058767197,1.8043956848498077,8.901448599227123
0.15879568321542362,1.803845108928464,8.89785600669533
0.15940643584317524,1.8032998356418914,8.894330363056563
0.16001718847092686,1.8027598277744847,8.890868551250605
0.1606279410986785,1.8022250458449585,8.887467382417128
0.1612386937264301,1.8016954481258907,8.884123605758399
0.16184944635418172,1.8011709906695503,8.880833918411124
0.16246019898193337,1.800651627339819,8.877594975306609
0.163070951609685,1.8001373098499942,8.874403398998268
0.16368170423743664,1.7996279878062889,8.87125578943595
0.16429245686518826,1.7991236087567826,8.86814873366665
0.16490320949293988,1.798624118245625,8.865078815442288
0.16551396212069153,1.798129459872249,8.862042624714121
0.16612471474844315,1.797639575355367,8.859036766995354
0.1667354673761948,1.7971544046015067,8.856057872572674
0.16734622000394642,1.796673885777845,8.853102605548717
0.16795697263169804,1.796197955389095,8.850167672697795
0.16856772525944969,1.7957265483581828,8.847249832116983
0.16917847788720128,1.7952595981104778,8.844345901656856
0.16978923051495293,1.7947970366613033,8.841452767114863
0.17039998314270455,1.794338794706476,8.83856739017606
0.17101073577045617,1.7938848017156104,8.835686816086882
0.17162148839820782,1.7934349860279257,8.83280818104693
0.17223224102595944,1.7929892749502945,8.829928719305903
0.17284299365371106,1.7925475948572671,8.827045769952695
0.1734537462814627,1.792109871292806,8.824156783384264
0.17406449890921433,1.791676029073474,8.821259327443833
0.17467525153696598,1.7912459923928064,8.818351093217009
0.1752860041647176,1.7908196849266145,8.81542990047686
0.17589675679246922,1.7903970299389544,8.812493702768599
0.17650750942022086,1.7899779503885127,8.809540592126224
0.17711826204797246,1.7895623690351476,8.806568803413624
0.1777290146757241,1.7891502085463478,8.803576718284184
0.17833976730347573,1.7887413916033448,8.800562868753024
0.17895051993122735,1.788335841006659,8.797525940378204
0.179561272558979,1.7879334797808226,8.79446477504585
0.18017202518673062,1.7875342312780578,8.791378373357993
0.18078277781448224,1.787138019280683,8.788265896620347
0.18139353044223389,1.78674476810202,8.78512666842946
0.1820042830699855,1.786354402685596,8.781960175858979
0.18261503569773715,1.7859668487024243,8.778766070246558
0.18322578832548878,1.7855820326461673,8.775544167581991
0.1838365409532404,1.7851998819259856,8.77229444850124
0.18444729358099204,1.7848203249568928,8.769017057887513
0.18505804620874364,1.7844432912474268,8.765712304086232
0.18566879883649529,1.7840687114844795,8.762380657737394
0.1862795514642469,1.783696517615117,8.759022750232644
0.18689030409199853,1.7833266429252417,8.755639371803758
0.18750105671975018,1.782959022114949,8.752231469249923
0.1881118093475018,1.782593591370451,8.748800143313275
0.18872256197525342,1.7822302884324386,8.745346645711491
0.18933331460300507,1.7818690526607697,8.7418723758377
0.18994406723075669,1.7815098250953796,8.738378877138654
0.19055481985850833,1.7811525485133182,8.734867833182362
0.19116557248625995,1.7807971674818364,8.731341063428282
0.19177632511401158,1.780443628407437,8.727800518711401
0.19238707774176322,1.7800918795808391,8.724248276455178
0.19299783036951482,1.7797418712177988,8.720686535625616
0.19360858299726647,1.7793935554957416,8.717117611442625
0.19421933562501809,1.7790468865861813,8.713543929861993
0.1948300882527697,1.778701820682903,8.709968021844585
0.19544084088052135,1.7783583160258931,8.706392517426986
0.19605159350827298,1.7780163329210317,8.702820139611594
0.19666234613602462,1.7776758337555372,8.699253698090013
0.19727309876377624,1.7773367830092062,8.695696082818834
0.19788385139152787,1.776999147261458,8.692150257462542
0.1984946040192795,1.77666289519424,8.688619252721626
0.19910535664703113,1.7763279975908342,8.685106159562402
0.19971610927478275,1.7759944273306263,8.681614122365719
0.20032686190253438,1.7756621593799087,8.678146332011831
0.200937614530286,1.7753311707787858,8.674706018918064
0.20154836715803764,1.775001440624278,8.671296446046867
0.20215911978578927,1.774672950049704,8.6679209019002
0.20276987241354089,1.774345682200458,8.664582693517845
0.20338062504129253,1.77401962220627,8.6612851394957
0.20399137766904415,1.7736947571500865,8.658031563039978
0.2046021302967958,1.7733710760336745,8.654825285073684
0.20521288292454742,1.7730485697400844,8.65166961741056
0.20582363555229904,1.7727272309931084,8.648567856012237
0.2064343881800507,1.7724070543138637,8.645523274342318
0.2070451408078023,1.772088035974654,8.642539116832904
0.2076558934355539,1.7717701739502452,8.639618592476552
0.20826664606330555,1.77145346786672,8.636764868557524
0.20887739869105718,1.771137918948053,8.633981064534256
0.20948815131880882,1.770823529960576,8.631270246086382
0.21009890394656044,1.7705103051554811,8.628635419336923
0.21070965657431207,1.770198250209536,8.626079525261073
0.2113204092020637,1.7698873721641633,8.623605434291871
0.21193116182981533,1.769577679363058,8.621215941132181
0.21254191445756698,1.7692691813885006,8.618913759782039
0.2131526670853186,1.768961888996535,8.616701518789771
0.21376341971307022,1.7686558140511728,8.614581756734337
0.21437417234082187,1.7683509694577904,8.612556917945605
0.2149849249685735,1.7680473690958782,8.610629348468827
