frequency,refractiveIndex,absorption
0.0006107526277516292,2.5881579605189673,0.0035859039487761337
0.0012215052555032584,2.5873222915798073,0.014326327521349323
0.0018322578832548875,2.585934129870867,0.03216963568440762
0.002443010511006517,2.5840003361599644,0.05703052957246358
0.003053763138758146,2.5815303795665776,0.0887911635593777
0.003664515766509775,2.5785362063488013,0.12730266584042074
0.004275268394261404,2.575032077711202,0.17238702171004627
0.004886021022013034,2.571034381075198,0.22383927042698717
0.005496773649764663,2.56656141979136,0.2814299604501922
0.006107526277516292,2.5616331865934057,0.3449078040574949
0.006718278905267922,2.5562711261973687,0.414002470928451
0.00732903153301955,2.5504978923494748,0.4884274610543716
0.00793978416077118,2.5443371043462424,0.5678830000912248
0.008550536788522809,2.537813107621871,0.6520589046715971
0.009161289416274438,2.530950742456094,0.74063737086602
0.009772042044026067,2.5237751242385835,0.8332956455385909
0.010382794671777697,2.516311438069141,0.9297085473916198
0.010993547299529326,2.5085847498095,1.029550811686825
0.011604299927280955,2.5006198350605517,1.1324992396603126
0.012215052555032585,2.4924410269406754,1.2382346402687616
0.012825805182784214,2.4840720830028995,1.3464435579290555
0.013436557810535843,2.475536071161377,1.4568197852190363
0.014047310438287471,2.46685527410667,1.5690656640238405
0.0146580630660391,2.4580511113751706,1.6828931823194653
0.015268815693790731,2.449144077998118,1.7980248767017635
0.01587956832154236,2.440153698484626,1.91419455294228
0.01649032094929399,2.431098494783531,2.0311478383509836
0.017101073577045618,2.4219959668129833,2.1486425806323197
0.01771182620479725,2.412862584135137,2.2664491083206526
0.018322578832548876,2.4037137873784515,2.3843503678639224
0.018933331460300507,2.394563998063103,2.5021419520718338
0.019544084088052135,2.3854266355593334,2.619632034037264
0.020154836715803762,2.3763141399970165,2.7366412198427694
0.020765589343555393,2.3672380000427298,2.853002332442245
0.02137634197130702,2.358208784562592,2.9685601381065374
0.021987094599058652,2.3492361772925343,3.083171025788424
0.02259784722681028,2.3403290137386263,3.196702648724304
0.02320859985456191,2.3314953196271877,3.3090335365772248
0.023819352482313542,2.322742350315928,3.420052685455484
0.02443010511006517,2.314076630662018,3.529659132225376
0.025040857737816797,2.3055039949208234,3.63776151868715
0.025651610365568428,2.2970296263191767,3.7442776504018225
0.026262362993320056,2.2886580960099208,3.849134054246727
0.026873115621071687,2.2803934011702687,3.9522655381386285
0.027483868248823314,2.2722390020552186,4.053614755792566
0.028094620876574942,2.2641978578600126,4.153131778879282
0.028705373504326573,2.256272461282097,4.250773678499217
0.0293161261320782,2.24846487170452,4.346504117503437
0.029926878759829835,2.2407767469491473,4.440292954854288
0.030537631387581463,2.2332093735703946,4.532115862928785
0.03114838401533309,2.225763695678619,4.621953958418433
0.03175913664308472,2.218440342297546,4.709793447268287
0.03236988927083635,2.2112396532723233,4.795625283917551
0.03298064189858798,2.2041617037547288,4.87944484495542
0.03359139452633961,2.1972063272996807,4.9612516171794026
0.034202147154091235,2.1903731376131113,5.041048899940082
0.03481289978184286,2.1836615489957003,5.118843521571983
0.0354236524095945,2.177070795529992,5.194645569641008
0.036034405037346125,2.170599949060527,5.268468134684343
0.03664515766509775,2.164247936017813,5.340327067076397
0.03725591029284938,2.158013553137382,5.410240746620125
0.037866662920601014,2.1518954821251515,5.47822986443997
0.038477415548352635,2.145892303319743,5.544317216734488
0.03908816817610427,2.1400025084015097,5.608527509935864
0.039698920803855904,2.13422451219689,5.6708871768172004
0.040309673431607525,2.1285566636253037,5.7314242030865135
0.04092042605935916,2.1229972558343553,5.7901679640079
0.04153117868711079,2.1175445355674154,5.847149070594803
0.04214193131486242,2.1121967118060874,5.9023992249271195
0.04275268394261404,2.106951963728285,5.955951084153016
0.04336343657036568,2.1018084480209707,6.007838132746225
0.043974189198117304,2.0967643055849075,6.058094562601785
0.04458494182586893,2.091817667667119,6.106755160566318
0.04519569445362056,2.086966661455092,6.153855203011787
0.045806447081372194,2.0822094151651656,6.19943035707611
0.04641719970912382,2.0775440626560453,6.243516588209693
0.04702795233687545,2.07296874759684,6.286150073680521
0.047638704964627084,2.068481627217634,6.327367121706546
0.048249457592378704,2.064080875669175,6.3672040958995115
0.04886021022013034,2.059764687016986,6.405697344718925
0.049470962847881966,2.055531277893912,6.442883135650876
0.050081715475633594,2.0513788898339036,6.4787975938406595
0.05069246810338522,2.047305791308676,6.513476644923616
0.051303220731136856,2.0433102794877813,6.54695596181244
0.05191397335888848,2.0393906817415677,6.579270915214257
0.05252472598664011,2.0355453569054687,6.610456527662754
0.053135478614391746,2.0317726963231277,6.640547430866249
0.05374623124214337,2.028071124684914,6.669577826183542
0.054356983869895,2.024439100677501,6.697581448052316
0.05496773649764663,2.02087511745937,6.724591530207482
0.05557848912539826,2.0173777029762388,6.750640774536435
0.056189241753149884,2.013945420129699,6.775761322430627
0.05679999438090152,2.010576866811584,6.799984728502011
0.057410747008653146,2.007270675815897,6.823341936543123
0.05802149963640477,2.0040255146394443,6.845863257617893
0.0586322522641564,2.0008400851817028,6.8675783501794525
0.059243004891908035,1.9977131233538288,6.888516202119087
0.05985375751965967,1.9946433986061314,6.9087051146573355
0.06046451014741129,1.991629713382774,6.928172687995705
0.061075262775162925,1.988670902511952,6.946945808653117
0.06168601540291455,1.9857658325392797,6.96505063841801
0.06229676803066618,1.9829134010116314,6.982512604851052
0.0629075206584178,1.9801125357182408,6.999356393279532
0.06351827328616944,1.9773621938953916,7.015605940227682
0.06412902591392107,1.9746613614006707,7.03128442823228
0.0647397785416727,1.972009051862285,7.04641428199551
0.06535053116942433,1.969404305808626,7.0610171658303535
0.06596128379717596,1.9668461897828817,7.075113982357222
0.0665720364249276,1.9643337954471476,7.088724872412117
0.06718278905267921,1.9618662386801708,7.1018692161288834
0.06779354168043085,1.9594426586725588,7.114565635160554
0.06840429430818247,1.9570622170229663,7.126831996004965
0.06901504693593409,1.9547240968385293,7.138685414402802
0.06962579956368573,1.9524275018425223,7.150142260775658
0.07023655219143736,1.9501716554919701,7.161218166673137
0.070847304819189,1.9479558001077222,7.171928032199058
0.07145805744694061,1.9457791960192445,7.18228603438612
0.07206881007469225,1.943641120726205,7.192305636489809
0.07267956270244387,1.9415408680786976,7.201999598171639
0.0732903153301955,1.9394777474777711,7.211379986541932
0.07390106795794714,1.937451083097742,7.220458188032213
0.07451182058569876,1.9354602131316265,7.229244921067871
0.0751225732134504,1.9335044890608142,7.237750249509324
0.07573332584120203,1.9315832749500133,7.24598359683233
0.07634407846895366,1.929695946768306,7.2539537610147855
0.07695483109670527,1.9278418917370543,7.261668930099767
0.0775655837244569,1.9260205077052397,7.2691366984004375
0.07817633635220854,1.9242312025527246,7.276364083316194
0.07878708897996017,1.922473393621797,7.2833575427247
0.07939784160771181,1.9207465071772682,7.290122992916772
0.08000859423546343,1.9190499778952692,7.296665827038957
0.08061934686321505,1.9173832483808388,7.302990934008722
0.08123009949096668,1.9157457687142643,7.309102717866066
0.08184085211871832,1.9141369960260894,7.315005117525414
0.08245160474646994,1.9125563941006196,7.320701626890686
0.08306235737422157,1.911003433007661,7.326195315295877
0.08367311000197321,1.9094775887622033,7.331488848233288
0.08428386262972484,1.9079783430116601,7.336584508330975
0.08489461525747646,1.906505182750229,7.341484216540388
0.08550536788522808,1.905057600059914,7.3461895534951696
0.08611612051297972,1.9036350918776324,7.350701781001777
0.08672687314073135,1.9022371597878682,7.35502186362169
0.08733762576848299,1.9008633098402075,7.3591504903055736
0.08794837839623461,1.8995130523911237,7.363088096039747
0.08855913102398623,1.898185901969281,7.366834883464055
0.08916988365173786,1.8968813771636461,7.370390844421753
0.0897806362794895,1.8955990005336163,7.373755781400927
0.09039138890724112,1.8943382985403858,7.376929328828031
0.09100214153499275,1.8930988014987145,7.379910974173798
0.09161289416274439,1.8918800435482603,7.382700078831795
0.09222364679049602,1.8906815626436055,7.385295898731737
0.09283439941824764,1.8895029005620847,7.387697604648206
0.09344515204599926,1.8883436029285188,7.389904302167522
0.0940559046737509,1.887203219255923,7.391915051275169
0.09466665730150253,1.886081303001277,7.393728885528159
0.09527740992925417,1.8849774116353901,7.395344830775442
0.09588816255700579,1.8838911067259316,7.396761923393094
0.09649891518475741,1.8828219540326547,7.3979792279995005
0.09710966781250904,1.8817695236138607,7.398995854618727
0.09772042044026068,1.8807333899431253,7.399810975260231
0.09833117306801231,1.8797131320353424,7.400423839885025
0.09894192569576393,1.8787083335810912,7.4008337917294265
0.09955267832351557,1.8777185830883971,7.4010402819591965
0.10016343095126719,1.876743474030899,7.40104288362833
0.10077418357901882,1.8757826050014912,7.400841304918035
0.10138493620677044,1.8748355798704994,7.400435401633733
0.10199568883452208,1.8739020079474455,7.399825188939028
0.10260644146227371,1.872981504145493,7.3990108523084235
0.10321719409002535,1.8720736891476728,7.3979927576805675
0.10382794671777695,1.8711781895739898,7.3967714607979325
0.10443869934552859,1.8702946381485497,7.3953477157197325
0.10504945197328022,1.8694226738658524,7.393722482496719
0.10566020460103186,1.8685619421554203,7.391896933998853
0.10627095722878349,1.867712095043966,7.389872461889791
0.10688170985653511,1.8668727913143104,7.387650681742705
0.10749246248428675,1.8660436966602936,7.385233437295269
0.10810321511203837,1.8652244838369687,7.38262280384418
0.10871396773979,1.8644148328053691,7.379821090780088
0.10932472036754162,1.8636144308711877,7.376830843268103
0.10993547299529326,1.862822972816737,7.373654843079589
0.11054622562304489,1.8620401610255917,7.37029610858445
0.11115697825079653,1.8612657055993522,7.366757893914264
0.11176773087854816,1.86049932446599,7.363043687308777
0.11237848350629977,1.8597407434793067,7.359157208662156
0.1129892361340514,1.8589896965090267,7.355102406284294
0.11359998876180304,1.8582459255211317,7.350883452897472
0.11421074138955467,1.857509180648052,7.346504740889117
0.11482149401730629,1.8567792202483784,7.341970876843142
0.11543224664505793,1.8560558109558074,7.33728667537484
0.11604299927280955,1.8553387277170565,7.332457152296009
0.11665375190056118,1.8546277538185478,7.327487517137805
0.1172645045283128,1.8539226809016707,7.322383165060998
0.11787525715606444,1.8532233089665069,7.317149668185076
0.11848600978381607,1.852529446363919,7.311792766368124
0.1190967624115677,1.8518409097759487,7.306318357470728
0.11970751503931934,1.8511575241845153,7.300732487139458
0.12031826766707095,1.8504791228284403,7.2950413381447685
0.12092902029482258,1.849805547148856,7.28925121931007
0.12153977292257422,1.8491366467231127,7.2833685540695265
0.12215052555032585,1.8484722791873036,7.277399868692064
0.12276127817807747,1.8478123101475954,7.2713517802102166
0.1233720308058291,1.8471566130805601,7.265230984092519
0.12398278343358073,1.8465050692227496,7.259044241698543
0.12459353606133236,1.845857567449787,7.252798367555814
0.125204288689084,1.8452140041452614,7.246500216497332
0.1258150413168356,1.8445742830597658,7.240156670699262
0.12642579394458725,1.8439383151604252,7.233774626657557
0.12703654657233887,1.8433060184712893,7.2273609821413185
0.12764729920009052,1.8426773179049962,7.220922623161908
0.12825805182784214,1.8420521450861258,7.214466410994269
0.12886880445559376,1.841430438166687,7.2079991692877465
0.1294795570833454,1.840812141634188,7.201527671302191
0.13009030971109703,1.8401972061127745,7.19505862730422
0.13070106233884865,1.8395855881579155,7.188598672158059
0.13131181496660027,1.8389772500451438,7.182154353143758
0.13192256759435192,1.8383721595533482,7.175732118034762
0.13253332022210354,1.8377702897431472,7.169338303465141
0.1331440728498552,1.8371716187308595,7.162979123616567
0.13375482547760678,1.8365761294586058,7.156660659252558
0.13436557810535843,1.8359838094610645,7.150388847126731
0.13497633073311005,1.8353946506294205,7.14416946978996
0.1355870833608617,1.8348086489730357,7.138008145820987
0.13619783598861332,1.8342258043793678,7.131910320501729
0.13680858861636494,1.8336461203726657,7.125881256957897
0.13741934124411656,1.833069603871958,7.119926027784865
0.13803009387186818,1.8324962649488543,7.1140495071750385
0.13864084649961983,1.831926116585652,7.108256363562992
0.13925159912737145,1.8313591744342592,7.102551052802336
0.1398623517551231,1.8307954565764075,7.096937811887157
0.14047310438287472,1.8302349832856317,7.091420653228071
0.14108385701062634,1.8296777767914842,7.086003359493051
0.141694609638378,1.8291238610464144,7.080689479019588
0.1423053622661296,1.8285732614957715,7.075482321804974
0.14291611489388123,1.8280260048513184,7.0703849560787155
0.14352686752163288,1.8274821188686874,7.065400205459821
0.1441376201493845,1.826941632129138,7.060530646700325
0.14474837277713615,1.8264045738260053,7.055778608015005
0.14535912540488774,1.8258709735561718,7.051146167995209
0.14596987803263936,1.8253408611169062,7.046635155103965
0.146580630660391,1.8248142663083804,7.042247147747802
0.14719138328814263,1.8242912187421532,7.037983474918981
0.14780213591589428,1.8237717476559063,7.033845217401869
0.1484128885436459,1.8232558817346811,7.029833209533581
0.14902364117139752,1.8227436489388604,7.025948041510828
0.14963439379914917,1.8222350763391064,7.022190062230624
0.1502451464269008,1.821730189958461,7.018559382653777
0.15085589905465244,1.8212290146217813,7.01505587967769
0.15146665168240406,1.8207315738126792,7.011679200504708
0.15207740431015568,1.820237889538099,7.008428767490428
0.15268815693790733,1.8197479822006584,7.005303783456445
0.15329890956565892,1.8192618704788603,7.002303237450454
0.15390966219341054,1.8187795712152592,6.999425910936268
0.1545204148211622,1.8183010993126474,6.996670384394303
0.1551311674489138,1.8178264676383171,6.994035044315269
0.15574192007666546,1.8173556869364274,6.991518090565226
0.15635267270441708,1.8168887657484902,6.989117544102737
0.1569634253321687,1.8164257103419803,6.986831255026499
0.15757417795992035,1.8159665246470484,6.984656910932945
0.15818493058767197,1.8155112102012991,6.982592045559781
0.15879568321542362,1.8150597661026,6.980634047695639
0.15940643584317524,1.8146121889698377,6.97878017033102
0.16001718847092686,1.8141684729115621,6.977027540028282
0.1606279410986785,1.8137286095024123,6.975373166487466
0.1612386937264301,1.8132925877672252,6.973813952283978
0.16184944635418172,1.8128603941727035,6.972346702754533
0.16246019898193337,1.8124320126265137,6.970968136007821
0.163070951609685,1.8120074244836641,6.969674893035244
0.16368170423743664,1.8115866085600145,6.968463547898826
0.16429245686518826,1.811169541152738,6.967330617970973
0.16490320949293988,1.8107561960675664,6.966272574203917
0.16551396212069153,1.8103465446526223,6.965285851403154
0.16612471474844315,1.8099405558386419,6.96436685848319
0.1667354673761948,1.8095381961853743,6.963511988680526
0.16734622000394642,1.8091394299339478,6.962717629702025
0.16795697263169804,1.8087442190649676,6.9619801737849
0.16856772525944969,1.8083525233621112,6.961296027646131
0.16917847788720128,1.8079643004809836,6.9606616222995505
0.16978923051495293,1.8075795060229816,6.9600734227178895
0.17039998314270455,1.807198093613904,6.959527937319571
0.17101073577045617,1.8068200149870537,6.959021727258767
0.17162148839820782,1.8064452200705614,6.958551415498658
0.17223224102595944,1.8060736570786553,6.95811369564866
0.17284299365371106,1.8057052726066052,6.9577053405459015
0.1734537462814627,1.8053400117290521,6.957323210563363
0.17406449890921433,1.8049778181014464,6.956964261626221
0.17467525153696598,1.8046186340643022,6.956625552920667
0.1752860041647176,1.8042624007499792,6.9563042542773985
0.17589675679246922,1.8039090581917026,6.955997653216343
0.17650750942022086,1.8035585454345224,6.955703161636659
0.17711826204797246,1.8032108006479297,6.95541832213937
0.1777290146757241,1.8028657612398231,6.955140813969374
0.17833976730347573,1.8025233639715414,6.9548684585653895
0.17895051993122735,1.8021835450736685,6.954599224707118
0.179561272558979,1.8018462403623199,6.9543312332494205
0.18017202518673062,1.8015113853556213,6.954062761435244
0.18078277781448224,1.8011789153900968,6.9537922467792646
0.18139353044223389,1.8008487657366832,6.953518290515749
0.1820042830699855,1.8005208717160937,6.9532396606045435
0.18261503569773715,1.8001951688132543,6.952955294291346
0.18322578832548878,1.7998715927905522,6.952664300218369
0.1838365409532404,1.7995500797996216,6.952365960083094
0.18444729358099204,1.799230566491423,6.952059729843952
0.18505804620874364,1.7989129901243588,6.951745240473059
0.18566879883649529,1.7985972886701835,6.951422298256302
0.1862795514642469,1.7982834009174733,6.951090884643831
0.18689030409199853,1.7979712665724341,6.950751155653333
0.18750105671975018,1.797660826356821,6.950403440830798
0.1881118093475018,1.797352022102768,6.9500482417743035
0.18872256197525342,1.7970447968443248,6.94968623022694
0.18933331460300507,1.7967390949055144,6.94931824574647
0.18994406723075669,1.7964348619847283,6.9489452929603726
0.19055481985850833,1.7961320452352965,6.94856853841589
0.19116557248625995,1.7958305933420753,6.948189307035388
0.19177632511401158,1.7955304565939016,6.94780907818853
0.19238707774176322,1.7952315869517859,6.9474294813939075
0.19299783036951482,1.7949339381127225,6.947052291663065
0.19360858299726647,1.7946374655690016,6.946679424501311
0.19421933562501809,1.7943421266629331,6.9463129305799916
0.1948300882527697,1.794047880636894,6.945954990096183
0.19544084088052135,1.7937546886786264,6.9456079068358605
0.19605159350827298,1.7934625139617286,6.945274101957975
0.19666234613602462,1.793171321681293,6.944956107516521
0.19727309876377624,1.792881079084656,6.944656559739694
0.19788385139152787,1.7925917554972388,6.944378192084038
0.1984946040192795,1.7923033223434701,6.944123828083183
0.19910535664703113,1.7920157531627985,6.943896374010851
0.19971610927478275,1.7917290236208048,6.943698811377783
0.20032686190253438,1.7914431115154505,6.943534189283132
0.200937614530286,1.7911579967784943,6.943405616640252
0.20154836715803764,1.7908736614721414,6.94331625429869
0.20215911978578927,1.7905900897809768,6.94326930708107
0.20276987241354089,1.7903072679992662,6.9432680157580196
0.20338062504129253,1.7900251845137112,6.943315648980245
0.20399137766904415,1.7897438297817496,6.943415495188952
0.2046021302967958,1.7894631963055134,6.943570854525434
0.20521288292454742,1.7891832786015593,6.943785030760004
0.20582363555229904,1.7889040731664967,6.944061323260542
0.2064343881800507,1.7886255784386518,6.944403019020311
0.2070451408078023,1.7883477947559052,6.94481338476503
0.2076558934355539,1.788070724309858,6.945295659157881
0.20826664606330555,1.7877943710964845,6.945853045121372
0.20887739869105718,1.7875187408634354,6.946488702294593
0.20948815131880882,1.7872438410541627,6.947205739642583
0.21009890394656044,1.786969680749045,6.9480072082361515
0.21070965657431207,1.786696270603692,6.948896094217578
0.2113204092020637,1.7864236227846175,6.949875311968657
0.21193116182981533,1.7861517509024734,6.95094769749586
0.21254191445756698,1.7858806699430283,6.952116002047007
0.2131526670853186,1.785610396196105,6.953382885973558
0.21376341971307022,1.7853409471826562,6.954750912850522
0.21437417234082187,1.7850723415801932,6.9562225438667395
