frequency,refractiveIndex,absorption
0.0006107526277516292,2.4670906264433716,0.0028582858873297218
0.0012215052555032584,2.4665181719941343,0.011422080565126514
0.0018322578832548875,2.465566645394464,0.025658309276358853
0.002443010511006517,2.4642398627417053,0.04551222560188933
0.003053763138758146,2.4625431070245503,0.07090797015291107
0.003664515766509775,2.4604830701923395,0.10174933592990051
0.004275268394261404,2.458067780912258,0.13792072429359511
0.004886021022013034,2.4553065195758297,0.1792882719373359
0.005496773649764663,2.4522097223400365,0.2257011263856935
0.006107526277516292,2.4487888761498473,0.2769928454429746
0.006718278905267922,2.445056406785465,0.3329828947095247
0.00732903153301955,2.4410255620096684,0.3934782167681183
0.00793978416077118,2.43671029186201,0.45827484587721634
0.008550536788522809,2.43212512806353,0.5271595429225436
0.009161289416274438,2.427285064365303,0.5999114268811704
0.009772042044026067,2.4222054395065133,0.6763035810351985
0.010382794671777697,2.4169018242517564,0.7561046145194563
0.010993547299529326,2.4113899137631254,0.8390801623818367
0.011604299927280955,2.405685426339422,0.9249943100647605
0.012215052555032585,2.3998040093308335,1.0136109309779378
0.012825805182784214,2.3937611528201606,1.1046949285375232
0.013436557810535843,2.3875721114566355,1.1980133766206087
0.014047310438287471,2.381251834640576,1.2933365547682603
0.0146580630660391,2.3748149050892917,1.39043887662362
0.015268815693790731,2.368275485668989,1.4890997119869518
0.01587956832154236,2.361647274254677,1.5891041044939012
0.01649032094929399,2.3549434662799142,1.690243388274566
0.017101073577045618,2.348176724560017,1.7923157080379069
0.01771182620479725,2.3413591559142968,1.8951264478629875
0.018322578832548876,2.3345022940734688,1.998488574586776
0.018933331460300507,2.3276170883349527,2.1022229020804906
0.019544084088052135,2.3207138974197696,2.206158282930217
0.020154836715803762,2.313802487987172,2.3101317341065895
0.020765589343555393,2.306892037275512,2.4139885031507062
0.02137634197130702,2.2999911393575942,2.517582081241135
0.021987094599058652,2.2931078145244896,2.62077416926436
0.02259784722681028,2.28624952134149,2.723434602706194
0.02320859985456191,2.2794231709523585,2.8254412408340186
0.023819352482313542,2.2726351432421232,2.9266798252635904
0.02443010511006517,2.265891304503064,3.0270438126120296
0.025040857737816797,2.259197026282952,3.126434185542435
0.025651610365568428,2.2525572051277947,3.2247592461116654
0.026262362993320056,2.2459762829633756,3.3219343949504654
0.026873115621071687,2.2394582678901482,3.417881899437159
0.027483868248823314,2.233006755194142,3.5125306536769294
0.028094620876574942,2.226624948402884,3.6058159327717574
0.028705373504326573,2.220315680239225,3.697679143560959
0.0293161261320782,2.2140814333478045,3.788067573731051
0.029926878759829835,2.207924360688638,3.876934140936281
0.030537631387581463,2.201846305509969,3.9642371433364656
0.03114838401533309,2.195848820828239,4.049940012746396
0.03175913664308472,2.189933188357044,4.134011071401145
0.03236988927083635,2.184100436839106,4.216423293169365
0.03298064189858798,2.1783513597461117,4.297154069896152
0.03359139452633961,2.172686532320503,4.3761849834213535
0.034202147154091235,2.1671063279414047,4.453501583700754
0.03481289978184286,2.161610933803788,4.529093173353906
0.0354236524095945,2.1562003659058577,4.6029525988707105
0.036034405037346125,2.1508744833446483,4.675076048630515
0.03664515766509775,2.145633001924051,4.745462857819532
0.03725591029284938,2.1404755070829737,4.814115320273599
0.037866662920601014,2.135401466154274,4.88103850722419
0.038477415548352635,2.1304102399674485,4.946240092883243
0.03908816817610427,2.125501093809992,5.009730186767665
0.039698920803855904,2.1206732077639034,5.071521172635703
0.040309673431607525,2.1159256864349416,5.131627553883464
0.04092042605935916,2.111257568093168,5.1900658052318045
0.04153117868711079,2.1066678332439843,5.24685423051893
0.04214193131486242,2.1021554126492914,5.302012826403908
0.04275268394261404,2.0977191948186875,5.355563151778596
0.04336343657036568,2.093358032990741,5.40752820268059
0.043974189198117304,2.0890707516244023,5.4579322924985405
0.04458494182586893,2.0848561524205005,5.506800937260602
0.04519569445362056,2.080713019893105,5.554160745798663
0.045806447081372194,2.0766401265102856,5.600039314584789
0.04641719970912382,2.0726362374235117,5.644465127041108
0.04702795233687545,2.0687001148045705,5.6874674571298085
0.047638704964627084,2.0648305218085206,5.729076277037254
0.048249457592378704,2.0610262261807613,5.769322168773279
0.04886021022013034,2.0572860035259257,5.808236239515652
0.049470962847881966,2.0536086402557707,5.845850040537173
0.050081715475633594,2.049992936232885,5.88219548956252
0.05069246810338522,2.0464377071264632,5.917304796410684
0.051303220731136856,2.042941786496001,5.951210391787956
0.05191397335888848,2.039504027618269,5.983944859105899
0.05252472598664011,2.0361233050724095,6.015540869206584
0.053135478614391746,2.0327985160976,6.04603111788795
0.05374623124214337,2.029528581737169,6.075448266128949
0.054356983869895,2.0263124477826575,6.103824882923994
0.05496773649764663,2.0231490855307874,6.131193390642352
0.05557848912539826,2.0200374923658972,6.157586012838177
0.056189241753149884,2.0169766921798895,6.183034724441002
0.05679999438090152,2.013965735641345,6.207571204266292
0.057410747008653146,2.011003700324944,6.231226789788994
0.05802149963640477,2.0080896907119956,6.254032434131756
0.0586322522641564,2.005222838072317,6.276018665221448
0.059243004891908035,2.0024023002374225,6.297215547076175
0.05985375751965967,1.9996272612744428,6.317652643185606
0.06046451014741129,1.9968969310698754,6.337358981954119
0.061075262775162925,1.9942105448318006,6.356363024177774
0.06168601540291455,1.991567362518872,6.374692632530719
0.06229676803066618,1.988966668203942,6.39237504303706
0.0629075206584178,1.986407769379845,6.409436838508115
0.06351827328616944,1.9838899962144785,6.425903923925481
0.06412902591392107,1.9814127007619837,6.441801503752258
0.0647397785416727,1.9789752561364364,6.457154061154833
0.06535053116942433,1.9765770556541564,6.47198533911895
0.06596128379717596,1.9742175119503893,6.486318323443468
0.0665720364249276,1.9718960560758094,6.500175227595738
0.06718278905267921,1.9696121365779369,6.513577479411072
0.06779354168043085,1.9673652185723036,6.526545709618771
0.06840429430818247,1.965154782807884,6.539099742177367
0.06901504693593409,1.9629803247310045,6.551258586398352
0.06962579956368573,1.9608413535516938,6.563040430838291
0.07023655219143736,1.958737391316148,6.574462638937556
0.070847304819189,1.9566679719887212,6.585541746381363
0.07145805744694061,1.9546326405466221,6.596293460158546
0.07206881007469225,1.9526309520902227,6.606732659290641
0.07267956270244387,1.950662470971681,6.616873397202524
0.0732903153301955,1.948726769944334,6.626728905703981
0.07390106795794714,1.9468234293351039,6.6363116005493525
0.07451182058569876,1.9449520362419725,6.645633088540982
0.0751225732134504,1.9431121837583374,6.654704176139101
0.07573332584120203,1.9413034702259282,6.663534879540524
0.07634407846895366,1.9395254985177204,6.672134436184426
0.07695483109670527,1.9377778753521586,6.680511317643713
0.0775655837244569,1.9360602106397975,6.68867324385618
0.07817633635220854,1.934372116863334,6.696627198650181
0.07878708897996017,1.9327132084918326,6.704379446515544
0.07939784160771181,1.9310831014298289,6.711935550570303
0.08000859423546343,1.929481412501812,6.719300391670414
0.08061934686321505,1.9279077589725029,6.726478188609682
0.08123009949096668,1.9263617581032015,6.733472519354092
0.08184085211871832,1.9248430267443422,6.740286343253915
0.08245160474646994,1.9233511809643085,6.746922024175031
0.08306235737422157,1.9218858357144406,6.753381354490081
0.08367311000197321,1.9204466045300648,6.759665579868307
0.08428386262972484,1.9190330992672857,6.765775424801623
0.08489461525747646,1.9176449298751725,6.771711118803789
0.08550536788522808,1.916281704202932,6.777472423218414
0.08611612051297972,1.9149430278415014,6.783058658570385
0.08672687314073135,1.9136285039990035,6.788468732394457
0.08733762576848299,1.9123377334093594,6.793701167474393
0.08794837839623461,1.911070314273355,6.798754130425971
0.08855913102398623,1.90982584223131,6.803625460554392
0.08916988365173786,1.9086039103665366,6.808312698920288
0.0897806362794895,1.907404109238623,6.812813117543571
0.09039138890724112,1.9062260269455904,6.817123748679011
0.09100214153499275,1.9050692492138894,6.821241414093427
0.09161289416274439,1.9039333595151626,6.82516275427739
0.09222364679049602,1.9028179392086653,6.828884257523424
0.09283439941824764,1.9017225677081797,6.832402288803294
0.09344515204599926,1.9006468226722344,6.835713118378083
0.0940559046737509,1.8995902802164004,6.838812950074384
0.09466665730150253,1.8985525151464138,6.841697949163137
0.09527740992925417,1.8975331012108196,6.84436426977518
0.09588816255700579,1.8965316113718589,6.846808081793409
0.09649891518475741,1.8955476180932331,6.849025597158025
0.09710966781250904,1.8945806936434209,6.8510130955268
0.09772042044026068,1.8936304104131687,6.852766949232015
0.09833117306801231,1.8926963412457805,6.854283647477135
0.09894192569576393,1.8917780597788167,6.8555598197209395
0.09955267832351557,1.890875140795815,6.856592258195521
0.10016343095126719,1.889987160586628,6.857377939509637
0.10077418357901882,1.8891136973149822,6.857914045290013
0.10138493620677044,1.8882543313918732,6.858197981816133
0.10199568883452208,1.8874086458533945,6.858227398606718
0.10260644146227371,1.8865762267416413,6.858000205919425
0.10321719409002535,1.8857566634873053,6.857514591127457
0.10382794671777695,1.8849495492926327,6.856769033940452
0.10443869934552859,1.8841544815133984,6.855762320440827
0.10504945197328022,1.8833710620386008,6.854493555908137
0.10566020460103186,1.8825988976665975,6.852962176409875
0.10627095722878349,1.8818376004764241,6.85116795913889
0.10688170985653511,1.881086788193086,6.849111031481851
0.10749246248428675,1.8803460845456306,6.846791878806472
0.10810321511203837,1.8796151196168622,6.8442113509595845
0.10871396773979,1.8788935301835918,6.8413706674708665
0.10932472036754162,1.878180960046359,6.838271421461189
0.10993547299529326,1.877477060347615,6.834915582258947
0.11054622562304489,1.8767814898774022,6.831305496730028
0.11115697825079653,1.8760939153656147,6.827443889331979
0.11176773087854816,1.8754140117599734,6.823333860905909
0.11237848350629977,1.8747414624889305,6.818978886223992
0.1129892361340514,1.874075959708732,6.81438281031289
0.11359998876180304,1.8734172045339645,6.809549843577567
0.11421074138955467,1.8727649072509627,6.804484555754042
0.11482149401730629,1.872118787513494,6.799191868720617
0.11543224664505793,1.8714785745202436,6.793677048203472
0.11604299927280955,1.8708440071736407,6.787945694412646
0.11665375190056118,1.870214834219663,6.782003731648705
0.1172645045283128,1.869590814368302,6.775857396923131
0.11787525715606444,1.8689717163944604,6.769513227638255
0.11848600978381607,1.8683573192190825,6.762978048372995
0.1190967624115677,1.8677474119704196,6.756258956826638
0.11970751503931934,1.86714179402537,6.749363308970434
0.12031826766707095,1.8665402750309106,6.742298703462931
0.12092902029482258,1.8659426749056902,6.735072965382774
0.12153977292257422,1.8653488238219298,6.727694129337652
0.12215052555032585,1.8647585621678096,6.720170422006196
0.12276127817807747,1.8641717404906077,6.712510244172815
0.1233720308058291,1.8635882194208986,6.704722152315537
0.12398278343358073,1.8630078695781607,6.6968148398071285
0.12459353606133236,1.8624305714582252,6.688797117790902
0.125204288689084,1.8618562153030176,6.680677895792395
0.1258150413168356,1.8612847009531042,6.672466162127778
0.12642579394458725,1.8607159376836009,6.664170964170667
0.12703654657233887,1.8601498440240374,6.6558013885374105
0.12764729920009052,1.859586347562811,6.647366541250916
0.12825805182784214,1.859025384736903,6.6388755279422895
0.12886880445559376,1.8584669006075578,6.630337434148301
0.1294795570833454,1.8579108486226574,6.6217613057620826
0.13009030971109703,1.8573571903665531,6.613156129692566
0.13070106233884865,1.856805895298129,6.604530814786244
0.13131181496660027,1.8562569404779148,6.5958941730656395
0.13192256759435192,1.8557103102850518,6.587254901333275
0.13253332022210354,1.8551659961249563,6.578621563191635
0.1331440728498552,1.854623996128525,6.570002571525423
0.13375482547760678,1.8540843148437358,6.561406171491546
0.13436557810535843,1.8535469629204981,6.5528404240585205
0.13497633073311005,1.8530119567896275,6.544313190137358
0.1355870833608617,1.8524793183367865,6.535832115339789
0.13619783598861332,1.8519490745722726,6.527404615401804
0.13680858861636494,1.8514212572974855,6.519037862303631
0.13741934124411656,1.8508959027689358,6.51073877111834
0.13803009387186818,1.8503730513606162,6.5025139876155436
0.13864084649961983,1.8498527472255692,6.494369876647727
0.13925159912737145,1.8493350379574482,6.486312511339555
0.1398623517551231,1.8488199742528704,6.4783476631029036
0.14047310438287472,1.8483076095753312,6.470480792493112
0.14108385701062634,1.8477979998214336,6.462717040923452
0.141694609638378,1.8472912029901578,6.455061223248557
0.1423053622661296,1.8467872788558894,6.447517821227733
0.14291611489388123,1.8462862886458793,6.44009097787579
0.14352686752163288,1.8457882947227924,6.432784492704852
0.1441376201493845,1.8452933602729862,6.425601817861832
0.14474837277713615,1.844801549001108,6.418546055159175
0.14535912540488774,1.844312924831599,6.411619953998882
0.14596987803263936,1.8438275516176352,6.404825910183429
0.146580630660391,1.8433454928580393,6.398165965608308
0.14719138328814263,1.8428668114226283,6.391641808826146
0.14780213591589428,1.8423915692864716,6.385254776471843
0.1484128885436459,1.84191982727347,6.379005855536067
0.14902364117139752,1.8414516448096527,6.372895686471546
0.14963439379914917,1.8409870796865586,6.3669245671159445
0.1502451464269008,1.8405261878350265,6.361092457411918
0.15085589905465244,1.8400690231096994,6.3553989849050625
0.15146665168240406,1.8396156370845118,6.349843450997228
0.15207740431015568,1.8391660788593955,6.3444248379316805
0.15268815693790733,1.8387203948784205,6.3391418164858795
0.15329890956565892,1.8382786287595367,6.333992754344287
0.15390966219341054,1.8378408211360857,6.328975725125491
0.1545204148211622,1.8374070095101809,6.324088518032741
0.1551311674489138,1.8369772281180667,6.31932864809999
0.15574192007666546,1.8365515078075079,6.314693367000665
0.15635267270441708,1.8361298759272517,6.310179674388825
0.1569634253321687,1.8357123562285742,6.305784329738547
0.15757417795992035,1.835298968778887,6.3015038646491055
0.15818493058767197,1.8348897298873672,6.297334595580369
0.15879568321542362,1.8344846520425424,6.293272636984634
0.15940643584317524,1.83408374386174,6.289313914798729
0.16001718847092686,1.833687010052281,6.285454180260161
0.1606279410986785,1.833294451384287,6.281689024011496
0.1612386937264301,1.8329060646749338,6.278013890455852
0.16184944635418172,1.832521842783972,6.274424092326522
0.16246019898193337,1.8321417746203148,6.2709148254336595
0.163070951609685,1.8317658451594647,6.267481183550699
0.16368170423743664,1.8313940354715414,6.264118173403643
0.16429245686518826,1.8310263227596486,6.260820729724968
0.16490320949293988,1.8306626804083048,6.257583730336823
0.16551396212069153,1.8303030780416352,6.254402011224756
0.16612471474844315,1.8299474815910228,6.251270381566722
0.1667354673761948,1.8295958533718881,6.24818363868075
0.16734622000394642,1.8292481521692514,6.245136582855512
0.16795697263169804,1.8289043333317356,6.242124032028653
0.16856772525944969,1.8285643488736225,6.239140836277897
0.16917847788720128,1.828228147584603,6.236181892091194
0.16978923051495293,1.827895675146819,6.233242156383036
0.17039998314270455,1.8275668742587903,6.2303166602231554
0.17101073577045617,1.8272416847658306,6.227400522247518
0.17162148839820782,1.8269200437965192,6.224488961719675
0.17223224102595944,1.8266018859048072,6.221577311213831
0.17284299365371106,1.826287143217321,6.218661028889702
0.1734537462814627,1.825975745585427,6.215735710333113
0.17406449890921433,1.8256676207416056,6.212797099934715
0.17467525153696598,1.8253626944596895,6.209841101782995
0.1752860041647176,1.8250608907185113,6.206863790045903
0.17589675679246922,1.8247621318685088,6.203861418821417
0.17650750942022086,1.8244663388008249,6.200830431433597
0.17711826204797246,1.8241734311184516,6.197767469155411
0.1777290146757241,1.823883327308962,6.194669379341236
0.17833976730347573,1.8235959449183672,6.191533222950883
0.17895051993122735,1.8233112007256602,6.188356281451815
0.179561272558979,1.8230290109175873,6.185136063085374
0.18017202518673062,1.8227492912632068,6.181870308485636
0.18078277781448224,1.8224719572877988,6.178556995641321
0.18139353044223389,1.8221969244456893,6.17519434419225
0.1820042830699855,1.8219241082915745,6.171780819054174
0.18261503569773715,1.8216534246499136,6.168315133367065
0.18322578832548878,1.821384789781999,6.164796250764068
0.1838365409532404,1.8211181205502969,6.161223386960392
0.18444729358099204,1.8208533345796785,6.157596010661893
0.18505804620874364,1.820590350415167,6.153913843796635
0.18566879883649529,1.8203290876758358,6.150176861073348
0.1862795514642469,1.8200694672045206,6.1463852888723
0.18689030409199853,1.819811411212999,6.142539603477211
0.18750105671975018,1.819554843422336,6.138640528656351
0.1881118093475018,1.8192996891980766,6.1346890326048165
0.18872256197525342,1.8190458756800163,6.130686324260752
0.18933331460300507,1.818793331906271,6.126633849008623
0.18994406723075669,1.818541988931396,6.122533283787073
0.19055481985850833,1.8182917799383325,6.1183865316175385
0.19116557248625995,1.8180426403439511,6.114195715572793
0.19177632511401158,1.817794507898016,6.1099631722059495
0.19238707774176322,1.817547322775378,6.10569144446115
0.19299783036951482,1.817301027661254,6.101383274088623
0.19360858299726647,1.8170555678294502,6.097041593588955
0.19421933562501809,1.8168108912134175,6.092669517710822
0.1948300882527697,1.8165669484700429,6.088270334528853
0.19544084088052135,1.816323693036102,6.08384749612875
0.19605159350827298,1.8160810811773185,6.079404608927811
0.19666234613602462,1.8158390720300017,6.074945423659317
0.19727309876377624,1.815597627635239,6.070473825050879
0.19788385139152787,1.8153567129656614,6.065993821226643
0.1984946040192795,1.815116295944797,6.061509532863581
0.19910535664703113,1.8148763474590708,6.057025182134316
0.19971610927478275,1.814636841362501,6.052545081465992
0.20032686190253438,1.8143977544741923,6.048073622148917
0.200937614530286,1.814159066568713,6.043615262825028
0.20154836715803764,1.8139207603594871,6.039174517889583
0.20215911978578927,1.813682821475332,6.034755945836201
0.20276987241354089,1.8134452384302981,6.030364137579066
0.20338062504129253,1.8132080025869792,6.026003704781608
0.20399137766904415,1.8129711081134805,6.0216792682242035
0.2046021302967958,1.8127345519342397,6.017395446241297
0.20521288292454742,1.8124983336749176,6.013156843257608
0.20582363555229904,1.8122624556015856,6.008968038453923
0.2064343881800507,1.8120269225544412,6.004833574590801
0.2070451408078023,1.811791741876312,6.000757947018561
0.2076558934355539,1.8115569233361968,5.996745592901441
0.20826664606330555,1.8113224790481202,5.992800880681434
0.20887739869105718,1.8110884233855777,5.9889280998087555
0.20948815131880882,1.8108547728918518,5.985131450762282
0.21009890394656044,1.8106215461864996,5.981415035383693
0.21070965657431207,1.8103887638683003,5.977782847548696
0.2113204092020637,1.8101564484149724,5.974238764194899
0.21193116182981533,1.8099246240799642,5.9707865367274024
0.21254191445756698,1.8096933167866274,5.967429782820364
0.2131526670853186,1.8094625540200835,5.9641719786321
0.21376341971307022,1.8092323647170991,5.961016451449055
0.21437417234082187,1.8090027791542789,5.957966372774535
