frequency,refractiveIndex,absorption
0.0006107526277516292,2.310632168221918,0.0010939195755373318
0.0012215052555032584,2.310432882651405,0.004373736368532938
0.0018322578832548875,2.3101011016529287,0.009833633616928288
0.002443010511006517,2.3096373660266836,0.017463946764971393
0.003053763138758146,2.309042429650994,0.02725120825037861
0.003664515766509775,2.3083172562746603,0.03917820964205756
0.004275268394261404,2.3074630154412175,0.053224080574258786
0.004886021022013034,2.3064810775804316,0.06936438377895986
0.005496773649764663,2.3053730083090103,0.0875712253844584
0.006107526277516292,2.3041405619887074,0.1078133795264211
0.006718278905267922,2.3027856745953725,0.1300564262093943
0.00732903153301955,2.301310455957215,0.1542629012633864
0.00793978416077118,2.299717181424309,0.18039245716257432
0.008550536788522809,2.2980082830345463,0.2084020334116984
0.009161289416274438,2.296186340243237,0.23824603516123732
0.009772042044026067,2.294254070285035,0.269876518684247
0.010382794671777697,2.292214318237263,0.3032433823360939
0.010993547299529326,2.2900700468535207,0.33829456162206023
0.011604299927280955,2.287824326235282,0.3749762270168888
0.012215052555032585,2.285480323407582,0.41323298321270274
0.012825805182784214,2.2830412918624945,0.45300806851709147
0.013436557810535843,2.2805105611311127,0.4942435531796026
0.014047310438287471,2.2778915264414668,0.5368805354913735
0.0146580630660391,2.2751876385158876,0.5808593345766612
0.015268815693790731,2.2724023935573543,0.6261196788772739
0.01587956832154236,2.269539323469832,0.67260088941641
0.01649032094929399,2.2666019863532134,0.7202420570196426
0.017101073577045618,2.263593957308797,0.7689822127627454
0.01771182620479725,2.260518819586598,0.8187604910099774
0.018322578832548876,2.257380156101211,0.8695162844996938
0.018933331460300507,2.254181541338362,0.9211893910259359
0.019544084088052135,2.2509265336699897,0.9737201513544855
0.020154836715803762,2.247618668091496,1.0270495780980302
0.020765589343555393,2.2442614493907596,1.0811194753574178
0.02137634197130702,2.240858345754959,1.1358725490141668
0.021987094599058652,2.237412782817533,1.1912525076315807
0.02259784722681028,2.2339281381447753,1.2472041539900602
0.02320859985456191,2.2304077361583525,1.3036734673432806
0.023819352482313542,2.2268548434876982,1.3606076765385084
0.02443010511006517,2.223272664743804,1.4179553241944174
0.025040857737816797,2.219664338704037,1.4756663221744963
0.025651610365568428,2.216032934895813,1.5336919986328834
0.026262362993320056,2.2123814505655504,1.5919851369431086
0.026873115621071687,2.20871280801821,1.6505000068484783
0.027483868248823314,2.2050298523116187,1.7091923881960662
0.028094620876574942,2.2013353492892422,1.768019587634718
0.028705373504326573,2.197631983934437,1.826940448672084
0.0293161261320782,2.1939223590289063,1.885915355495176
0.029926878759829835,2.1902089940979996,1.944906230966177
0.030537631387581463,2.1864943246254174,2.0038765292074614
0.03114838401533309,2.182780701519999,2.062791223189918
0.03175913664308472,2.1790703908176825,2.1216167877368113
0.03236988927083635,2.1753655736018276,2.1803211783482417
0.03298064189858798,2.1716683461257698,2.2388738062458304
0.03359139452633961,2.1679807201218124,2.2972455100267672
0.034202147154091235,2.164304623281533,2.355408524305878
0.03481289978184286,2.160641899892849,2.4133364457123996
0.0354236524095945,2.156994311619918,2.4710041965939293
0.036034405037346125,2.1533635384126883,2.5283879867670342
0.03664515766509775,2.1497511795335256,2.5854652736375874
0.03725591029284938,2.146158754689079,2.6422147209993847
0.037866662920601014,2.1425877052562523,2.6986161568029208
0.038477415548352635,2.139039395591798,2.7546505301701125
0.03908816817610427,2.1355151144157576,2.810299867914431
0.039698920803855904,2.1320160762596716,2.865547230809463
0.040309673431607525,2.128543422971033,2.9203766698319766
0.04092042605935916,2.125098225266159,2.974773182589964
0.04153117868711079,2.1216814843242626,3.028722670129649
0.04214193131486242,2.1182941334160006,3.082211894299764
0.04275268394261404,2.1149370395604175,3.135228435835927
0.04336343657036568,2.111611005204611,3.187760653312601
0.043974189198117304,2.108316769921081,3.2397976430959203
0.04458494182586893,2.105055012118006,3.2913292004161674
0.04519569445362056,2.1018263507582793,3.342345781664597
0.045806447081372194,2.098631347083424,3.3928384680063925
0.04641719970912382,2.0954705063389536,3.4427989303890527
0.04702795233687545,2.092344279498045,3.4922193960127776
0.047638704964627084,2.08925306498071,3.5410926163170364
0.048249457592378704,2.086197210365994,3.5894118365288783
0.04886021022013034,2.083177014094896,3.6371707668040387
0.049470962847881966,2.080192727162081,3.6843635549863354
0.050081715475633594,2.0772445547945586,3.73098476099673
0.05069246810338522,2.074332658115752,3.7770293328581586
0.051303220731136856,2.0714571557935737,3.8224925843520374
0.05191397335888848,2.0686181256712715,3.8673701742945616
0.05252472598664011,2.06581560637991,3.911658087413751
0.053135478614391746,2.0630495989315776,3.9553526168016524
0.05374623124214337,2.060320068292408,3.998450347909494
0.054356983869895,2.0576269449346998,4.040948144047801
0.05496773649764663,2.054970126367425,4.0828431333479545
0.05557848912539826,2.052349478644561,4.124132697137861
0.056189241753149884,2.049764837850684,4.1648144596786345
0.05679999438090152,2.047216011563373,4.204886279206851
0.057410747008653146,2.0447027802919524,4.244346240222082
0.05802149963640477,2.042224898892223,4.283192646957899
0.0586322522641564,2.0397820979567562,4.321424017970479
0.059243004891908035,2.037374085180511,4.359039081779226
0.05985375751965967,2.0350005467013426,4.396036773488565
0.06046451014741129,2.0326611484152055,4.43241623232281
0.061075262775162925,2.030355537265695,4.46817680000161
0.06168601540291455,2.028083342507715,4.503318019885711
0.06229676803066618,2.0258441769449678,4.537839636820142
0.0629075206584178,2.0236376381410146,4.571741597603734
0.06351827328616944,2.0214633096036905,4.605024052013953
0.06412902591392107,2.0193207619425864,4.637687354315662
0.0647397785416727,2.017209553999402,4.669732065185476
0.06535053116942433,2.0151292339509026,4.701158953982085
0.06596128379717596,2.0130793403842726,4.731969001296754
0.0665720364249276,2.011059403344643,4.7621634017183245
0.06718278905267921,2.0090689453545796,4.791743566749774
0.06779354168043085,2.00710748240531,4.820711127814871
0.06840429430818247,2.0051745249195276,4.849067939296883
0.06901504693593409,2.0032695786855452,4.876816081551694
0.06962579956368573,2.001392145762665,4.903957863842908
0.07023655219143736,1.999541725357564,4.930495827146544
0.070847304819189,1.9977178146715915,4.95643274677822
0.07145805744694061,1.9959199097188076,4.981771634795985
0.07206881007469225,1.9941475061146838,5.006515742137781
0.07267956270244387,1.9924000998353568,5.03066856045308
0.0732903153301955,1.9906771879473641,5.054233823592683
0.07390106795794714,1.9889782693078104,5.077215508723275
0.07451182058569876,1.987302845234958,5.099617837037265
0.0751225732134504,1.9856504201492027,5.121445274029745
0.07573332584120203,1.9840205021844917,5.142702529319794
0.07634407846895366,1.9824126037702205,5.163394555995087
0.07695483109670527,1.9808262421836733,5.183526549461377
0.0775655837244569,1.979260940073149,5.203103945784099
0.07817633635220854,1.9777162259518504,5.222132419507851
0.07878708897996017,1.9761916346627688,5.240617880948052
0.07939784160771181,1.9746867078146952,5.2585664729466215
0.08000859423546343,1.9732009941896274,5.27598456708992
0.08061934686321505,1.9717340501217897,5.292878759388653
0.08123009949096668,1.9702854398485907,5.309255865421818
0.08184085211871832,1.9688547358337913,5.325122914949815
0.08245160474646994,1.9674415190632553,5.340487146004393
0.08306235737422157,1.966045379313653,5.355355998464853
0.08367311000197321,1.964665915394506,5.369737107132774
0.08428386262972484,1.9633027353640302,5.383638294319399
0.08489461525747646,1.9619554567192101,5.397067561961949
0.08550536788522808,1.9606237065606165,5.41003308328618
0.08611612051297972,1.9593071217324685,5.42254319403722
0.08672687314073135,1.9580053489384874,5.434606383297119
0.08733762576848299,1.9567180448340997,5.4462312839148455
0.08794837839623461,1.9554448760955978,5.457426662572381
0.08855913102398623,1.9541855194668383,5.468201409511894
0.08916988365173786,1.952939661784157,5.478564527952445
0.0897806362794895,1.9517069999801173,5.4885251232234085
0.09039138890724112,1.9504872410667797,5.498092391643296
0.09100214153499275,1.9492801020992008,5.507275609175069
0.09161289416274439,1.9480853101198468,5.516084119886872
0.09222364679049602,1.9469026020846647,5.524527324250377
0.09283439941824764,1.945731724771549,5.532614667307615
0.09344515204599926,1.9445724346719426,5.540355626738389
0.0940559046737509,1.9434244978663626,5.547759700860224
0.09466665730150253,1.9422876898846024,5.554836396592969
0.09527740992925417,1.9411617955513998,5.5615952174202015
0.09588816255700579,1.940046608818375,5.568045651379824
0.09649891518475741,1.938941932583015,5.574197159114572
0.09710966781250904,1.9378475784955225,5.580059162015524
0.09772042044026068,1.9367633667543183,5.585641030488114
0.09833117306801231,1.9356891258910254,5.59095207237226
0.09894192569576393,1.9346246925457131,5.596001521545812
0.09955267832351557,1.9335699112332345,5.6007985267414675
0.10016343095126719,1.9325246341014357,5.605352140604214
0.10077418357901882,1.9314887206820552,5.609671309018228
0.10138493620677044,1.9304620376350934,5.6137648607291535
0.10199568883452208,1.9294444584874484,5.617641497287266
0.10260644146227371,1.9284358633665888,5.6213097833366685
0.10321719409002535,1.9274361387300432,5.624778137273007
0.10382794671777695,1.9264451770914583,5.628054822292431
0.10443869934552859,1.925462876743977,5.63114793785254
0.10504945197328022,1.9244891414816674,5.634065411564702
0.10566020460103186,1.9235238803197332,5.636814991535923
0.10627095722878349,1.9225670072141947,5.639404239176853
0.10688170985653511,1.9216184407817458,5.641840522491334
0.10749246248428675,1.9206781040204473,5.644131009861001
0.10810321511203837,1.9197459240319135,5.646282664337529
0.10871396773979,1.9188218317456283,5.648302238452376
0.10932472036754162,1.9179057616459991,5.6501962695540735
0.10993547299529326,1.9169976515027325,5.651971075679385
0.11054622562304489,1.9160974421051238,5.653632751965342
0.11115697825079653,1.915205077000779,5.65518716760518
0.11176773087854816,1.9143205022393033,5.656639963351695
0.11237848350629977,1.9134436661214644,5.6579965495689315
0.1129892361340514,1.912574518954274,5.659262104830521
0.11359998876180304,1.9117130128124602,5.660441575064191
0.11421074138955467,1.9108591013067344,5.661539673237001
0.11482149401730629,1.910012739359248,5.662560879577131
0.11543224664505793,1.9091738829866096,5.6635094423249654
0.11604299927280955,1.9083424890907847,5.664389379004955
0.11665375190056118,1.9075185152582081,5.6652044782088495
0.1172645045283128,1.9067019195673578,5.665958301878548
0.11787525715606444,1.9058926604050792,5.666654188077006
0.11848600978381607,1.9050906962918481,5.667295254232107
0.1190967624115677,1.9042959857161934,5.6678844008396885
0.11970751503931934,1.9035084869784202,5.668424315607652
0.12031826766707095,1.9027281580437978,5.668917478026312
0.12092902029482258,1.9019549564052851,5.669366164343119
0.12153977292257422,1.901188838955918,5.669772452925568
0.12215052555032585,1.9004297618708692,5.670138229989537
0.12276127817807747,1.8996776804992304,5.670465195672347
0.1233720308058291,1.898932549265508,5.6707548704288655
0.12398278343358073,1.8981943215808028,5.6710086017276184
0.12459353606133236,1.897462949763619,5.671227571022777
0.125204288689084,1.896738384970227,5.671412800979279
0.1258150413168356,1.8960205771344723,5.67156516292563
0.12642579394458725,1.8953094749168962,5.671685384509408
0.12703654657233887,1.894605025663039,5.671774057531627
0.12764729920009052,1.8939071753707222,5.671831645933044
0.12825805182784214,1.8932158686661429,5.671858493907494
0.12886880445559376,1.8925310487885523,5.671854834117406
0.1294795570833454,1.8918526575832817,5.671820795984413
0.13009030971109703,1.8911806355028853,5.671756414031649
0.13070106233884865,1.8905149216160957,5.671661636249947
0.13131181496660027,1.889855453624349,5.671536332465982
0.13192256759435192,1.8892021678855508,5.6713803026851535
0.13253332022210354,1.8885549994447763,5.671193285386376
0.1331440728498552,1.8879138820715928,5.67097496574457
0.13375482547760678,1.8872787483036528,5.670724983758253
0.13436557810535843,1.8866495294962191,5.670442942259219
0.13497633073311005,1.8860261558772673,5.670128414782055
0.1355870833608617,1.8854085566078005,5.66978095327403
0.13619783598861332,1.8847966598470096,5.669400095622955
0.13680858861636494,1.8841903928219081,5.668985372985551
0.13741934124411656,1.8835896819010574,5.668536316896349
0.13803009387186818,1.882994452672009,5.66805246614049
0.13864084649961983,1.8824046300220825,5.667533373373649
0.13925159912737145,1.881820138222088,5.666978611473332
0.1398623517551231,1.8812409010126292,5.666387779607569
0.14047310438287472,1.880666841692587,5.665760509006745
0.14108385701062634,1.8800978832094317,5.665096468428311
0.141694609638378,1.8795339482509665,5.664395369300493
0.1423053622661296,1.8789749593381606,5.663656970537735
0.14291611489388123,1.8784208389186912,5.662881083017686
0.14352686752163288,1.8778715094608518,5.662067573712384
0.1441376201493845,1.877326893547478,5.66121636946802
0.14474837277713615,1.8767869139695539,5.660327460427002
0.14535912540488774,1.8762514938191701,5.659400903089416
0.14596987803263936,1.8757205565815158,5.658436823010351
0.146580630660391,1.8751940262256057,5.65743541713248
0.14719138328814263,1.8746718272934302,5.656396955751867
0.14780213591589428,1.8741538849872676,5.655321784119643
0.1484128885436459,1.8736401252548684,5.654210323679617
0.14902364117139752,1.873130474872265,5.653063072946396
0.14963439379914917,1.8726248615239671,5.651880608026667
0.1502451464269008,1.8721232138802968,5.650663582789717
0.15085589905465244,1.8716254616716717,5.649412728692611
0.15146665168240406,1.8711315357596123,5.648128854267429
0.15207740431015568,1.870641368204305,5.646812844278935
0.15268815693790733,1.8701548923285387,5.645465658560838
0.15329890956565892,1.8696720427778697,5.644088330540851
0.15390966219341054,1.869192755576868,5.642681965465986
0.1545204148211622,1.8687169681813154,5.6412477383375395
0.1551311674489138,1.868244619526261,5.639786891570265
0.15574192007666546,1.8677756500698244,5.638300732386958
0.15635267270441708,1.8673100018326731,5.636790629962254
0.1569634253321687,1.8668476184331197,5.635258012330887
0.15757417795992035,1.8663884451177637,5.633704363073042
0.15818493058767197,1.8659324287876804,5.632131217794217
0.15879568321542362,1.8654795180200991,5.630540160412783
0.15940643584317524,1.8650296630855985,5.62893281927421
0.16001718847092686,1.8645828159607976,5.627310863104776
0.1606279410986785,1.864138930336592,5.625675996824792
0.1612386937264301,1.863697961621948,5.62402995723571
0.16184944635418172,1.8632598669433178,5.622374508600003
0.16246019898193337,1.8628246051397295,5.6207114381293595
0.163070951609685,1.8623921367536254,5.6190425514001445
0.16368170423743664,1.861962424017542,5.617369667712325
0.16429245686518826,1.8615354308367065,5.615694615409543
0.16490320949293988,1.861111122767686,5.614019227178109
0.16551396212069153,1.8606894669931813,5.612345335341182
0.16612471474844315,1.8602704322931052,5.610674767165998
0.1667354673761948,1.8598539890120769,5.609009340200516
0.16734622000394642,1.8594401090234791,5.60735085765615
0.16795697263169804,1.8590287656902362,5.605701103853195
0.16856772525944969,1.8586199338224576,5.604061839744095
0.16917847788720128,1.8582135896321368,5.602434798531356
0.16978923051495293,1.8578097106850653,5.6008216813940965
0.17039998314270455,1.8574082758501436,5.5992241533383265
0.17101073577045617,1.8570092652462842,5.597643839185886
0.17162148839820782,1.8566126601870858,5.596082319714507
0.17223224102595944,1.8562184431234852,5.594541127962807
0.17284299365371106,1.8558265975845751,5.593021745712729
0.1734537462814627,1.8554371081168004,5.591525600160984
0.17406449890921433,1.8550499602217285,5.5900540607908695
0.17467525153696598,1.8546651402926058,5.588608436455069
0.1752860041647176,1.8542826355499102,5.58718997267898
0.17589675679246922,1.8539024339760999,5.585799849193377
0.17650750942022086,1.8535245242497767,5.584439177705551
0.17711826204797246,1.853148895679469,5.58310899991511
0.1777290146757241,1.8527755381372462,5.5818102857824625
0.17833976730347573,1.8524044419923587,5.580543932054036
0.17895051993122735,1.8520355980451273,5.579310761051503
0.179561272558979,1.8516689974612706,5.578111519726717
0.18017202518673062,1.8513046317068713,5.576946878986886
0.18078277781448224,1.8509424924841833,5.575817433292731
0.18139353044223389,1.8505825716684645,5.574723700529698
0.1820042830699855,1.8502248612460275,5.573666122153792
0.18261503569773715,1.8498693532536843,5.572645063611561
0.18322578832548878,1.8495160397197685,5.571660815032321
0.1838365409532404,1.8491649126069034,5.570713592192145
0.18444729358099204,1.848815963756675,5.569803537743804
0.18505804620874364,1.8484691848363757,5.568930722712297
0.18566879883649529,1.8481245672879647,5.568095148247898
0.1862795514642469,1.847782102279381,5.5672967476331126
0.18689030409199853,1.8474417806583656,5.566535388537178
0.18750105671975018,1.847103592908887,5.565810875508715
0.1881118093475018,1.8467675291103194,5.565122952701832
0.18872256197525342,1.8464335788994588,5.564471306823089
0.18933331460300507,1.8461017314354895,5.563855570293098
0.18994406723075669,1.8457719753679873,5.563275324609883
0.19055481985850833,1.8454442988080406,5.5627301039047055
0.19116557248625995,1.845118689302555,5.5622193986773025
0.19177632511401158,1.844795133811814,5.561742659699671
0.19238707774176322,1.8444736186903272,5.561299302074047
0.19299783036951482,1.8441541296710269,5.560888709432317
0.19360858299726647,1.8438366518528253,5.560510238263504
0.19421933562501809,1.8435211696915592,5.560163222353454
0.1948300882527697,1.8432076669943336,5.559846977323119
0.19544084088052135,1.8428961269172521,5.559560805249153
0.19605159350827298,1.8425865319665302,5.559303999352779
0.19666234613602462,1.842278864002965,5.559075848738801
0.19727309876377624,1.8419731042497276,5.55887564317093
0.19788385139152787,1.8416692333034383,5.55870267786546
0.1984946040192795,1.841367231148462,5.5585562582880765
0.19910535664703113,1.8410670771743731,5.558435704936175
0.19971610927478275,1.8407687501965049,5.558340358091115
0.20032686190253438,1.8404722284795079,5.558269582523613
0.200937614530286,1.840177489763822,5.558222772134993
0.20154836715803764,1.8398845112949656,5.558199354520057
0.20215911978578927,1.8395932698555288,5.558198795432685
0.20276987241354089,1.8393037417997546,5.55822060314107
0.20338062504129253,1.8390159030905837,5.558264332654618
0.20399137766904415,1.8387297293390317,5.558329589809176
0.2046021302967958,1.8384451958457602,5.5584160351943686
0.20521288292454742,1.8381622776446833,5.558523387909044
0.20582363555229904,1.8378809495484878,5.558651429131678
0.2064343881800507,1.8376011861958734,5.5588000054911815
0.2070451408078023,1.837322962100378,5.558969032224893
0.2076558934355539,1.8370462517006068,5.559158496114603
0.20826664606330555,1.836771029411704,5.559368458184311
0.20887739869105718,1.8364972696778814,5.559599056153166
0.20948815131880882,1.836224947025844,5.559850506630907
0.21009890394656044,1.835954036118914,5.56012310704747
0.21070965657431207,1.8356845118116845,5.5604172373080525
0.2113204092020637,1.8354163492050222,5.5607333611651715
0.21193116182981533,1.8351495237012245,5.56107202730268
0.21254191445756698,1.834884011059161,5.561433870123013
0.2131526670853186,1.8346197874492107,5.561819610235706
0.21376341971307022,1.8343568295078116,5.562230054639412
