frequency,refractiveIndex,absorption
0.0006107526277516292,2.2107267928550804,0.0019783781680187515
0.0012215052555032584,2.2102777709114907,0.0079040565342279
0.0018322578832548875,2.209531781706988,0.017748778449594677
0.002443010511006517,2.2084923654542243,0.03146581942512474
0.003053763138758146,2.2071644175408363,0.04899053294798488
0.003664515766509775,2.2055541293815666,0.07024109685082221
0.004275268394261404,2.203668914807608,0.09511944330736394
0.004886021022013034,2.2015173236846395,0.1235123518420969
0.005496773649764663,2.199108944686263,0.15529268182387257
0.006107526277516292,2.1964542993138214,0.19032071883669
0.006718278905267922,2.1935647293448994,0.22844560811484546
0.00732903153301955,2.190452279912477,0.2695068478799767
0.00793978416077118,2.187129580369594,0.31333581587141973
0.008550536788522809,2.1836097249882727,0.3597573035333938
0.009161289416274438,2.179906155385449,0.4085910341038697
0.009772042044026067,2.1760325463739103,0.45965314311614636
0.010382794671777697,2.1720026967138613,0.5127576024440273
0.010993547299529326,2.167830426001629,0.5677175718652432
0.011604299927280955,2.1635294786867973,0.6243466650637086
0.012215052555032585,2.15911343596645,0.6824601199293969
0.012825805182784214,2.154595636073247,0.7418758658531874
0.013436557810535843,2.149989103258407,0.8024154833770903
0.014047310438287471,2.1453064855760777,0.8639050539931282
0.0146580630660391,2.1405600014046535,0.926175900046706
0.015268815693790731,2.1357613944949794,0.9890652165730404
0.01587956832154236,2.1309218972152637,1.0524165984686291
0.01649032094929399,2.126052201567073,1.1160804676791933
0.017101073577045618,2.121162437474878,1.1799144060845406
0.01771182620479725,2.116262157800823,1.2437834004992763
0.018322578832548876,2.1113603295047065,1.3075600067117057
0.018933331460300507,2.1064653303539047,1.371124439778864
0.019544084088052135,2.101584950586661,1.434364597912368
0.020154836715803762,2.096726398942332,1.4971760272556685
0.020765589343555393,2.0918963124914423,1.5594618346951872
0.02137634197130702,2.087100769724768,1.6211325555918945
0.021987094599058652,2.0823453063921047,1.6821059829871046
0.02259784722681028,2.07763493361639,1.7423069644487068
0.02320859985456191,2.0729741578459353,1.8016671722977196
0.023819352482313542,2.068367002245617,1.8601248525057203
0.02443010511006517,2.063817029165945,1.917624557093463
0.025040857737816797,2.0593273633663673,1.974116864400278
0.025651610365568428,2.054900715705281,2.029558091140709
0.026262362993320056,2.0505394070435767,2.0839099997254253
0.026873115621071687,2.046245392141083,2.137139503903424
0.027483868248823314,2.042020283355432,2.1892183753844177
0.028094620876574942,2.037865373980887,2.2401229537273926
0.028705373504326573,2.033781661090342,2.289833861434663
0.0293161261320782,2.0297698677669644,2.338335725870828
0.029926878759829835,2.025830464633168,2.385616909334358
0.030537631387581463,2.02196369060346,2.43166924834407
0.03114838401533309,2.0181695728045908,2.4764878029630752
0.03175913664308472,2.0144479456214617,2.520070616771059
0.03236988927083635,2.010798468840295,2.562418487903761
0.03298064189858798,2.0072206448720933,2.6035347514140317
0.03359139452633961,2.003713835049365,2.643425073062495
0.034202147154091235,2.0002772749975843,2.682097254521039
0.03481289978184286,1.9969100890900955,2.7195610498648004
0.0354236524095945,1.9936113040013237,2.7558279931394125
0.036034405037346125,1.9903798613780965,2.7909112367139914
0.03664515766509775,1.9872146296531437,2.8248254000721222
0.03725591029284938,1.9841144150279593,2.857586428642196
0.037866662920601014,1.9810779716549218,2.8892114622340217
0.038477415548352635,1.9781040110504031,2.919718712620814
0.03908816817610427,1.9751912107719252,2.9491273497871635
0.039698920803855904,1.9723382223933763,2.9774573963545707
0.040309673431607525,1.9695436788126421,3.004729629691341
0.04092042605935916,1.9668062009261542,3.0309654912163193
0.04153117868711079,1.964124403704597,3.056187002412554
0.04214193131486242,1.9614969017035944,3.0804166870785807
0.04275268394261404,1.9589223140424588,3.103677499358566
0.04336343657036568,1.9563992688832568,3.125992757110423
0.043974189198117304,1.9539264074414917,3.147386080189407
0.04458494182586893,1.951502387558572,3.167881333246828
0.04519569445362056,1.9491258868650911,3.187502572663537
0.045806447081372194,1.9467956055627487,3.2062739972628655
0.04641719970912382,1.944510268851459,3.2242199024689824
0.04702795233687545,1.9422686290269526,3.2413646376010363
0.047638704964627084,1.9400694672729202,3.257732566016258
0.048249457592378704,1.9379115951704728,3.273348027838144
0.04886021022013034,1.9357938559464607,3.2882353050276887
0.049470962847881966,1.933715125481021,3.302418588578293
0.050081715475633594,1.931674313093519,3.315921947634287
0.05069246810338522,1.929670362124926,3.3287693003542866
0.051303220731136856,1.9277022503336116,3.340984386358896
0.05191397335888848,1.9257689901204624,3.3525907406202453
0.05252472598664011,1.9238696285982593,3.3636116686676067
0.053135478614391746,1.922003247519309,3.3740702229997837
0.05374623124214337,1.9201689630744048,3.3839891806086015
0.054356983869895,1.9183659255753698,3.3933910215326977
0.05496773649764663,1.9165933190326174,3.4022979083720077
0.05557848912539826,1.91485036063843,3.4107316667064005
0.056189241753149884,1.913136300165898,3.4187137663706215
0.05679999438090152,1.9114504192928654,3.426265303548939
0.057410747008653146,1.9097920308595349,3.4334069836602104
0.05802149963640477,1.908160478067834,3.4401591050123645
0.0586322522641564,1.906555133630067,3.446541543211096
0.059243004891908035,1.904975398873896,3.4525737363152187
0.05985375751965967,1.9034207028101615,3.4582746707343577
0.06046451014741129,1.901890501169649,3.463662867870079
0.061075262775162925,1.900384275414429,3.4687563715051755
0.06168601540291455,1.8989015317290519,3.473572735948332
0.06229676803066618,1.897441799996473,3.4781290149448725
0.0629075206584178,1.8960046327632356,3.4824417513646053
0.06351827328616944,1.8945896041981185,3.486526967680725
0.06412902591392107,1.8931963090481514,3.490400157253543
0.0647397785416727,1.891824361595594,3.4940762764337987
0.06535053116942433,1.8904733946192145,3.4975697375000476
0.06596128379717596,1.8891430583629438,3.5008944024445654
0.0665720364249276,1.8878330195147521,3.504063577621535
0.06718278905267921,1.8865429601983312,3.5070900092700996
0.06779354168043085,1.885272576980003,3.5099858799244554
0.06840429430818247,1.8840215798930269,3.5127628057207345
0.06901504693593409,1.8827896914813143,3.515431834609784
0.06962579956368573,1.8815766458643728,3.518003445482947
0.07023655219143736,1.8803821878251175,3.520487548215642
0.070847304819189,1.8792060719220494,3.5228934846323074
0.07145805744694061,1.8780480616271273,3.5252300303937956
0.07206881007469225,1.8769079284905317,3.527505397806128
0.07267956270244387,1.8757854513333592,3.5297272395474524
0.0732903153301955,1.87468041546919,3.5319026533079616
0.07390106795794714,1.87359261195531,3.5340381873348763
0.07451182058569876,1.8725218368742818,3.5361398468729726
0.0751225732134504,1.8714678906464368,3.5382131014881573
0.07573332584120203,1.870430577373751,3.5402628932601607
0.07634407846895366,1.869409704215474,3.542293645827317
0.07695483109670527,1.8684050807957946,3.544309274265427
0.0775655837244569,1.8674165186437206,3.546313195779391
0.07817633635220854,1.866443830665265,3.5483083411849994
0.07878708897996017,1.8654868306479826,3.5502971671560473
0.07939784160771181,1.8645453327977817,3.5522816692103953
0.08000859423546343,1.8636191513078952,3.5542633954058758
0.08061934686321505,1.862708099959805,3.5562434607161086
0.08123009949096668,1.8618119917558817,3.558222562054249
0.08184085211871832,1.8609306385833961,3.560200993910762
0.08245160474646994,1.8600638509095453,3.5621786645706845
0.08306235737422157,1.8592114375070514,3.564155112873317
0.08367311000197321,1.8583732052098565,3.566129525476655
0.08428386262972484,1.8575489586983829,3.5681007545878907
0.08489461525747646,1.8567385003137769,3.5700673361191555
0.08550536788522808,1.855941629900538,3.5720275082276816
0.08611612051297972,1.855158144676841,3.5739792301983275
0.08672687314073135,1.8543878391318944,3.575920201625002
0.08733762576848299,1.8536305049495696,3.5778478818475197
0.08794837839623461,1.852885930957558,3.5797595096000294
0.08855913102398623,1.8521539031012466,3.5816521228250298
0.08916988365173786,1.8514342044415002,3.5835225786090015
0.0897806362794895,1.8507266151754804,3.58536757319311
0.09039138890724112,1.8500309126796406,3.5871836620136377
0.09100214153499275,1.8493468715739867,3.588967279726471
0.09161289416274439,1.8486742638066864,3.5907147601694027
0.09222364679049602,1.8480128587580797,3.59242235621692
0.09283439941824764,1.8473624233631427,3.594086259482095
0.09344515204599926,1.846722722251417,3.5957026198204085
0.0940559046737509,1.84609351790342,3.5972675645909984
0.09466665730150253,1.845474570822544,3.5987772176315045
0.09527740992925417,1.8448656397214136,3.600227717902886
0.09588816255700579,1.8442664817216987,3.6016152377629798
0.09649891518475741,1.84367685256634,3.6029360008253315
0.09710966781250904,1.8430965068431695,3.604186299365325
0.09772042044026068,1.8425251982188686,3.605362511232126
0.09833117306801231,1.8419626796822466,3.6064611162301707
0.09894192569576393,1.8414087037957914,3.607478711933012
0.09955267832351557,1.840863022954447,3.608412028893785
0.10016343095126719,1.8403253896506104,3.609257945220348
0.10077418357901882,1.8397955567442952,3.6100135004817817
0.10138493620677044,1.8392732777374587,3.6106759089172793
0.10199568883452208,1.8387583070514857,3.61124257191887
0.10260644146227371,1.8382504003068174,3.611711089762024
0.10321719409002535,1.8377493146037591,3.6120792725596913
0.10382794671777695,1.8372548088034917,3.6123451504188386
0.10443869934552859,1.8367666438083339,3.6125069827780902
0.10504945197328022,1.836284582840329,3.612563266911006
0.10566020460103186,1.8358083917172507,3.612512745577993
0.10627095722878349,1.835337839125137,3.612354413815614
0.10688170985653511,1.8348726968864917,3.6120875248518596
0.10749246248428675,1.8344127402233257,3.6117115951400565
0.10810321511203837,1.8339577480142313,3.6112264085063908
0.10871396773979,1.833507503044719,3.6106320194072064
0.10932472036754162,1.8330617922500685,3.609928755296571
0.10993547299529326,1.832620406949997,3.6091172181060505
0.11054622562304489,1.8321831430744682,3.6081982848413623
0.11115697825079653,1.8317498013800064,3.607173107303203
0.11176773087854816,1.8313201876559229,3.606043110941412
0.11237848350629977,1.8308941129199001,3.604809992855842
0.1129892361340514,1.8304713936024049,3.6034757189568123
0.11359998876180304,1.8300518517194753,3.6020425203034034
0.11421074138955467,1.8296353150334366,3.6005128886381184
0.11482149401730629,1.8292216172011533,3.598889571138742
0.11543224664505793,1.8288105979094902,3.5971755644125007
0.11604299927280955,1.828402102997663,3.5953741077561197
0.11665375190056118,1.8279959845662306,3.593488675710729
0.1172645045283128,1.8275921010725185,3.5915229699402675
0.11787525715606444,1.8271903174123005,3.589480910464725
0.11848600978381607,1.826790504987627,3.5873666262809225
0.1190967624115677,1.826392541760706,3.585184445405081
0.11970751503931934,1.8259963122938163,3.5829388843726897
0.12031826766707095,1.825601707775258,3.5806346372331728
0.12092902029482258,1.8252086260313842,3.578276564076174
0.12153977292257422,1.8248169715248235,3.5758696791301
0.12215052555032585,1.824426655339006,3.5734191384713663
0.12276127817807747,1.8240375951491838,3.5709302273859596
0.1233720308058291,1.823649715180149,3.5684083474236963
0.12398278343358073,1.8232629461509005,3.5658590031879887
0.12459353606133236,1.8228772252065395,3.56328778890117
0.125204288689084,1.822492495837718,3.560700374789661
0.1258150413168356,1.8221087077879856,3.558102493329155
0.12642579394458725,1.8217258169494148,3.5554999253930823
0.12703654657233887,1.8213437852469165,3.5528984863451756
0.12764729920009052,1.8209625805116778,3.5503040121183154
0.12825805182784214,1.820582176344187,3.54772234531955
0.12886880445559376,1.8202025519673246,3.5451593214021453
0.1294795570833454,1.8198236920700264,3.5426207549439797
0.13009030971109703,1.8194455866420378,3.540112426070418
0.13070106233884865,1.8190682308003057,3.537640067059691
0.13131181496660027,1.818691624607551,3.535209349167226
0.13192256759435192,1.818315772883599,3.532825869703959
0.13253332022210354,1.8179406850100304,3.5304951394031114
0.1331440728498552,1.8175663747287507,3.5282225701076744
0.13375482547760678,1.8171928599350613,3.5260134628106155
0.13436557810535843,1.8168201624658262,3.5238729960765607
0.13497633073311005,1.8164483078833358,3.521806214874563
0.1355870833608617,1.8160773252554632,3.5198180198472917
0.13619783598861332,1.8157072469327107,3.5179131570427553
0.13680858861636494,1.8153381083227345,3.516096208130965
0.13741934124411656,1.8149699476629457,3.5143715811280303
0.13803009387186818,1.8146028057917591,3.5127435016466726
0.13864084649961983,1.8142367259190704,3.5112160046917062
0.13925159912737145,1.813871753396524,3.5097929270165795
0.1398623517551231,1.8135079354881227,3.508477900055909
0.14047310438287472,1.8131453211417252,3.5072743434453977
0.14108385701062634,1.812783960761954,3.5061854591419643
0.141694609638378,1.812423905985033,3.5052142261509314
0.1423053622661296,1.8120652094560432,3.504363395869306
0.14291611489388123,1.8117079246090928,3.503635488050178
0.14352686752163288,1.8113521054508477,3.503032787391167
0.1441376201493845,1.810997806347881,3.5025573407505886
0.14474837277713615,1.8106450818182664,3.502210954990019
0.14535912540488774,1.8102939863278165,3.501995195443447
0.14596987803263936,1.8099445740913604,3.5019113850092456
0.146580630660391,1.8095968988794262,3.50196060386106
0.14719138328814263,1.8092510138306694,3.5021436897711116
0.14780213591589428,1.8089069712703834,3.502461239039156
0.1484128885436459,1.8085648225353825,3.502913608017789
0.14902364117139752,1.8082246178055494,3.503500915223895
0.14963439379914917,1.807886405942305,3.504223044024989
0.1502451464269008,1.807550234334238,3.5050796458872386
0.15085589905465244,1.8072161487501164,3.506070144171348
0.15146665168240406,1.8068841931994697,3.5071937384610266
0.15207740431015568,1.8065544098009236,3.5084494094078407
0.15268815693790733,1.8062268386584353,3.5098359240748582
0.15329890956565892,1.805901517745564,3.5113518417608383
0.15390966219341054,1.8055784827978905,3.512995520286138
0.1545204148211622,1.8052577672136665,3.5147651227189547
0.1551311674489138,1.8049394019627822,3.516658624522696
0.15574192007666546,1.804623415504082,3.5186738211009576
0.15635267270441708,1.8043098337110748,3.5208083357191646
0.1569634253321687,1.8039986798060492,3.523059627778793
0.15757417795992035,1.8036899743025767,3.525425001421114
0.15818493058767197,1.8033837349563915,3.5279016144360837
0.15879568321542362,1.8030799767245949,3.5304864874518156
0.15940643584317524,1.80277871173313,3.5331765133794706
0.16001718847092686,1.8024799492524457,3.535968467088468
0.1606279410986785,1.8021836956812594,3.5388590152860444
0.1612386937264301,1.8018899545383087,3.541844726575383
0.16184944635418172,1.8015987264619677,3.54492208166656
0.16246019898193337,1.8013100092175887,3.5480874837130716
0.163070951609685,1.8010237977124146,3.5513372687492186
0.16368170423743664,1.8007400840179004,3.5546677162006346
0.16429245686518826,1.8004588573992515,3.558075059442361
0.16490320949293988,1.8001801043520007,3.5615554963784604
0.16551396212069153,1.7999038086454078,3.5651052000168044
0.16612471474844315,1.799629951372469,3.568720329013258
0.1667354673761948,1.7993585110063068,3.572397038159953
0.16734622000394642,1.7990894634627088,3.5761314887923663
0.16795697263169804,1.7988227821685576,3.5799198590899466
0.16856772525944969,1.798558438135902,3.5837583542462905
0.16917847788720128,1.7982964000414028,3.5876432164846497
0.16978923051495293,1.7980366343108791,3.591570734895275
0.17039998314270455,1.7977791052086727,3.595537255071527
0.17101073577045617,1.797523774931546,3.599539188522619
0.17162148839820782,1.7972706037068167,3.6035730218411097
0.17223224102595944,1.7970195498944341,3.6076353256046367
0.17284299365371106,1.7967705700926881,3.6117227629905875
0.1734537462814627,1.7965236192472454,3.6158320980857175
0.17406449890921433,1.7962786507632003,3.61996020387053
0.17467525153696598,1.7960356166198261,3.624104069862401
0.1752860041647176,1.7957944674877107,3.628260809398568
0.17589675679246922,1.795555152847951,3.6324276665450985
0.17650750942022086,1.7953176211130968,3.6366020226155547
0.17711826204797246,1.7950818197495197,3.6407814022862275
0.1777290146757241,1.7948476954008825,3.644963479294492
0.17833976730347573,1.7946151940123993,3.6491460817093704
0.17895051993122735,1.7943842609555638,3.653327196762711
0.179561272558979,1.794154841153034,3.6575049752324618
0.18017202518673062,1.793926879203361,3.6616777353687557
0.18078277781448224,1.7937003195052559,3.6658439663564075
0.18139353044223389,1.793475106381091,3.6700023313077144
0.1820042830699855,1.793251184199335,3.674151669780214
0.18261503569773715,1.793028497495639,3.6782909998169044
0.18322578832548878,1.792806991092271,3.6824195195055056
0.1838365409532404,1.7925866102156418,3.6865366080569477
0.18444729358099204,1.79236730061163,3.6906418264019996
0.18505804620874364,1.7921490086584608,3.6947349173084527
0.18566879883649529,1.7919316814768682,3.69881580502093
0.1862795514642469,1.7917152670373109,3.7028845944275486
0.18689030409199853,1.7914997142639975,3.706941569758286
0.18750105671975018,1.791284973135498,3.710987192821273
0.1881118093475018,1.7910709947817305,3.7150221007849775
0.18872256197525342,1.7908577315771173,3.719047103514301
0.18933331460300507,1.7906451372297234,3.7230631804702483
0.18994406723075669,1.790433166866196,3.727071477185054
0.19055481985850833,1.79022177711234,3.731073301323421
0.19116557248625995,1.7900109261691763,3.735070118343093
0.19177632511401158,1.7898005738843448,3.7390635467697972
0.19238707774176322,1.7895906818187204,3.7430553530996726
0.19299783036951482,1.7893812133081373,3.74704744634618
0.19360858299726647,1.7891721335201138,3.7510418722481162
0.19421933562501809,1.7889634095054991,3.7550408071554644
0.1948300882527697,1.788755010244967,3.7590465516118
0.19544084088052135,1.7885469066903028,3.7630615236521554
0.19605159350827298,1.7883390718004377,3.7670882518358604
0.19666234613602462,1.7881314805722053,3.7711293680341207
0.19727309876377624,1.7879241100658008,3.775187599993522
0.19788385139152787,1.7877169394249506,3.779265763696298
0.1984946040192795,1.787509949891795,3.7833667555389834
0.19910535664703113,1.7873031248165225,3.78749354435093
0.19971610927478275,1.787096449661785,3.791649163275343
0.20032686190253438,1.7868899120019592,3.795836701535104
0.200937614530286,1.786683501517306,3.800059296104884
0.20154836715803764,1.786477209983126,3.804320123313922
0.20215911978578927,1.7862710312539836,3.8086223903998655
0.20276987241354089,1.786064961243115,3.812969327037859
0.20338062504129253,1.7858589978971309,3.817364176866176
0.20399137766904415,1.7856531411661378,3.8218101890312313
0.2046021302967958,1.7854473929694166,3.8263106097734796
0.20521288292454742,1.7852417571568002,3.8308686740758375
0.20582363555229904,1.7850362394659125,3.835487597396091
0.2064343881800507,1.7848308474754198,3.840170567503906
0.2070451408078023,1.7846255905544832,3.844920736442838
0.2076558934355539,1.7844204798085768,3.8497412126371984
0.20826664606330555,1.7842155280218657,3.854635053162657
0.20887739869105718,1.7840107495963373,3.859605256199747
0.20948815131880882,1.7838061604878825,3.8646547536876072
0.21009890394656044,1.7836017781395281,3.869786404195187
0.21070965657431207,1.7833976214120364,3.8750029860268733
0.2113204092020637,1.783193710512074,3.8803071905770854
0.21193116182981533,1.7829900669181753,3.885701615949817
0.21254191445756698,1.78278671330471,3.8911887608559397
